#Acq. time (s)=	20
#Accumulations=	2
#Range (cm-¹)=	50...4000
#Windows=	3
#Autofocus=	Off
#AutoExposure=	Off
#Spike filter=	Multiple accum.
#Delay time (s)=	0
#Binning=	1
#Readout mode=	Signal
#DeNoise=	Off
#ICS correction=	Off
#Dark correction=	Off
#Inst. Process=	Off
#Instrument=	LabRAM HR Evol
#Detector=	Syncerity OE
#Objective=	x100_VIS
#Grating=	600 (500nm)
#ND Filter=	100%
#Laser=	532nm_Edge
#Hole=	100.021
#Range=	Visible
#Project=	Omar
#Sample=	
#Site=	21-09-22
#Title=	 CN-Sastre
#Remark=	
#Date=	21.09.2022 14:41
#Acquired=	21.09.2022 14:41:46
51.0918	42
52.9354	46
54.7807	50
56.6235	60
58.4681	86
60.3102	118
62.154	184
63.9954	216
65.8385	264
67.6792	326
69.5216	422
71.3615	572
73.2032	718
75.0424	840
76.8834	938
78.7218	1010
80.5621	1224
82.3998	1324
84.2393	1392
86.0764	1424
87.9152	1516
89.7515	1570
91.5874	1580
93.4251	1520
95.2603	1500
97.0973	1504
98.9318	1490
100.766	1492
102.602	1456
104.435	1610
106.27	1582
108.103	1592
109.936	1542
111.77	1562
113.601	1594
115.433	1552
117.266	1546
119.096	1560
120.926	1544
122.758	1546
124.588	1528
126.417	1482
128.246	1486
130.076	1468
131.904	1518
133.732	1510
135.561	1506
137.388	1532
139.215	1546
141.041	1468
142.869	1468
144.695	1478
146.52	1520
148.345	1502
150.171	1506
151.995	1486
153.819	1478
155.642	1438
157.465	1434
159.29	1478
161.112	1432
162.934	1434
164.756	1422
166.577	1412
168.398	1420
170.219	1442
172.041	1420
173.861	1430
175.68	1398
177.499	1408
179.318	1418
181.137	1360
182.955	1448
184.772	1392
186.592	1404
188.409	1380
190.225	1372
192.042	1336
193.857	1342
195.673	1384
197.488	1360
199.303	1334
201.118	1390
202.932	1358
204.746	1416
206.559	1360
208.372	1360
210.185	1328
211.997	1332
213.809	1352
215.621	1348
217.432	1312
219.243	1340
221.054	1368
222.864	1310
224.674	1320
226.483	1326
228.293	1308
230.101	1306
231.91	1296
233.718	1304
235.524	1292
237.331	1282
239.138	1300
240.945	1290
242.751	1288
244.557	1288
246.363	1296
248.168	1338
249.971	1342
251.776	1314
253.58	1290
255.384	1288
257.188	1320
258.991	1366
260.792	1324
262.594	1358
264.396	1324
266.198	1310
268	1320
269.799	1262
271.599	1314
273.4	1278
275.2	1266
277	1320
278.797	1312
280.596	1308
282.395	1284
284.193	1296
285.989	1274
287.786	1308
289.584	1334
291.378	1276
293.175	1278
294.971	1290
296.765	1324
298.561	1300
300.356	1330
302.148	1266
303.943	1290
305.737	1328
307.529	1368
309.322	1340
311.115	1352
312.906	1340
314.698	1328
316.49	1292
318.28	1310
320.071	1340
321.86	1308
323.651	1340
325.441	1334
327.229	1360
329.019	1340
330.806	1348
332.595	1294
334.381	1302
336.17	1298
337.955	1328
339.743	1312
341.528	1330
343.315	1340
345.099	1312
346.885	1346
348.669	1348
350.455	1322
352.238	1352
354.022	1316
355.805	1336
357.589	1334
359.371	1342
361.154	1352
362.935	1344
364.718	1362
366.498	1360
368.278	1350
370.06	1334
371.839	1334
373.62	1352
375.398	1374
377.177	1372
378.956	1380
380.734	1386
382.513	1414
384.29	1392
386.067	1392
387.845	1386
389.621	1350
391.396	1350
393.173	1412
394.948	1352
396.723	1358
398.499	1346
400.273	1394
402.046	1368
403.819	1344
405.594	1382
407.366	1364
409.138	1362
410.91	1396
412.683	1374
414.454	1374
416.225	1334
417.995	1372
419.768	1356
421.537	1380
423.307	1390
425.076	1360
426.844	1352
428.615	1364
430.382	1374
432.15	1340
433.917	1380
435.684	1376
437.451	1362
439.219	1376
440.985	1324
442.751	1390
444.516	1372
446.281	1388
448.045	1352
449.81	1386
451.574	1382
453.337	1370
455.102	1380
456.865	1354
458.628	1358
460.39	1382
462.152	1384
463.913	1336
465.674	1376
467.435	1378
469.196	1406
470.956	1392
472.716	1356
474.475	1378
476.234	1360
477.993	1368
479.752	1362
481.51	1282
483.268	1284
485.025	1384
486.782	1382
488.539	1332
490.295	1310
492.051	1320
493.807	1326
495.563	1322
497.316	1304
499.07	1284
500.825	1308
502.579	1294
504.333	1308
506.086	1318
507.839	1288
509.592	1280
511.344	1292
513.094	1320
514.846	1268
516.597	1308
518.349	1322
520.099	1320
521.85	1382
523.598	1390
525.347	1370
527.097	1382
528.846	1478
530.595	1492
532.341	1470
534.089	1516
535.837	1510
537.584	1582
539.329	1660
541.076	1656
542.822	1702
544.568	1700
546.312	1740
548.057	1748
549.802	1834
551.545	1808
553.289	1780
555.033	1786
556.775	1792
558.518	1810
560.261	1806
562.002	1782
563.744	1806
565.487	1806
567.226	1760
568.968	1734
570.709	1740
572.447	1746
574.188	1718
575.926	1710
577.665	1692
579.405	1646
581.142	1652
582.88	1632
584.617	1572
586.355	1602
588.091	1592
589.828	1510
591.565	1526
593.3	1508
595.036	1494
596.77	1492
598.506	1508
600.239	1484
601.974	1456
603.707	1478
605.442	1400
607.174	1412
608.905	1354
610.639	1392
612.37	1350
614.103	1314
615.833	1330
617.565	1306
619.295	1342
621.026	1226
622.755	1326
624.484	1260
626.215	1260
627.943	1296
629.67	1226
631.4	1206
633.127	1192
634.856	1240
636.582	1206
638.308	1206
640.036	1198
641.762	1160
643.487	1172
645.214	1174
646.938	1136
648.662	1104
650.386	1098
652.112	1102
653.835	1100
655.558	1078
657.282	1084
659.005	1074
660.726	1050
662.448	1036
664.171	1058
665.892	980
667.613	984
669.333	1002
671.053	934
672.774	942
674.494	942
676.213	956
677.931	948
679.649	904
681.369	884
683.087	884
684.804	884
686.521	896
688.238	854
689.954	826
691.67	864
693.386	848
695.103	830
696.818	790
698.533	806
700.247	816
701.961	780
703.675	772
705.389	776
707.102	784
708.814	750
710.527	786
712.239	736
713.951	722
715.662	732
717.373	750
719.084	748
720.795	718
722.505	692
724.215	700
725.924	726
727.633	680
729.342	676
731.051	696
732.759	680
734.467	708
736.174	690
737.882	706
739.589	706
741.295	700
742.999	684
744.705	708
746.411	726
748.116	700
749.821	702
751.526	664
753.23	728
754.934	736
756.636	728
758.34	704
760.043	728
761.745	734
763.448	716
765.148	734
766.85	768
768.551	748
770.252	752
771.953	776
773.652	720
775.352	738
777.052	758
778.751	736
780.448	758
782.147	730
783.846	772
785.544	744
787.24	730
788.938	752
790.635	748
792.33	736
794.027	728
795.723	702
797.417	710
799.113	730
800.808	714
802.501	734
804.196	692
805.89	708
807.582	694
809.276	690
810.968	648
812.661	662
814.354	676
816.044	658
817.736	664
819.426	636
821.118	634
822.807	642
824.498	612
826.186	624
827.877	606
829.565	622
831.254	588
832.942	566
834.631	590
836.317	576
838.006	594
839.692	562
841.38	550
843.065	528
844.752	570
846.437	554
848.123	540
849.808	554
851.493	576
853.177	570
854.86	546
856.545	542
858.228	558
859.912	544
861.594	514
863.276	538
864.959	516
866.64	560
868.321	518
870.003	530
871.683	532
873.363	522
875.044	550
876.723	546
878.402	582
880.083	554
881.761	526
883.439	586
885.116	532
886.795	558
888.472	558
890.149	554
891.825	556
893.503	544
895.179	544
896.854	598
898.529	582
900.204	570
901.88	600
903.555	570
905.228	596
906.902	598
908.575	596
910.25	598
911.922	598
913.595	636
915.266	606
916.938	642
918.609	640
920.28	618
921.951	660
923.623	622
925.293	684
926.963	704
928.633	692
930.302	694
931.97	714
933.639	722
935.307	742
936.975	740
938.642	750
940.31	780
941.977	780
943.643	738
945.31	776
946.976	756
948.641	778
950.307	772
951.972	780
953.636	788
955.301	794
956.965	804
958.629	782
960.292	776
961.955	784
963.618	774
965.279	740
966.941	776
968.603	748
970.265	748
971.926	772
973.587	830
975.248	800
976.908	774
978.566	838
980.226	818
981.886	782
983.545	850
985.204	852
986.86	816
988.519	836
990.177	858
991.834	878
993.491	874
995.147	888
996.803	838
998.46	894
1000.12	858
1001.77	906
1003.43	880
1005.08	900
1006.73	894
1008.39	878
1010.04	926
1011.7	946
1013.35	938
1015	930
1016.65	934
1018.3	940
1019.96	990
1021.61	1034
1023.26	958
1024.91	990
1026.56	1032
1028.21	1048
1029.86	1016
1031.51	1046
1033.16	1052
1034.81	1046
1036.46	1086
1038.1	1098
1039.75	1168
1041.4	1190
1043.05	1154
1044.69	1158
1046.34	1216
1047.99	1208
1049.63	1240
1051.28	1250
1052.92	1246
1054.57	1282
1056.21	1256
1057.86	1316
1059.5	1316
1061.14	1366
1062.79	1414
1064.43	1404
1066.07	1424
1067.72	1440
1069.36	1464
1071	1492
1072.64	1484
1074.28	1590
1075.92	1558
1077.57	1566
1079.2	1578
1080.84	1636
1082.48	1680
1084.12	1656
1085.76	1638
1087.4	1664
1089.04	1690
1090.68	1682
1092.32	1676
1093.95	1704
1095.59	1724
1097.22	1688
1098.86	1694
1100.5	1684
1102.13	1662
1103.77	1610
1105.4	1596
1107.04	1592
1108.67	1588
1110.31	1570
1111.94	1536
1113.58	1462
1115.21	1442
1116.84	1434
1118.47	1434
1120.1	1404
1121.74	1326
1123.37	1320
1125	1348
1126.63	1250
1128.26	1268
1129.89	1232
1131.52	1186
1133.15	1188
1134.78	1206
1136.41	1132
1138.04	1134
1139.67	1106
1141.3	1052
1142.92	1038
1144.55	1032
1146.18	1068
1147.8	1006
1149.43	980
1151.06	966
1152.68	958
1154.31	952
1155.93	954
1157.56	898
1159.18	912
1160.81	872
1162.43	896
1164.06	826
1165.68	858
1167.3	808
1168.93	824
1170.55	798
1172.17	782
1173.79	800
1175.41	782
1177.03	758
1178.66	744
1180.28	770
1181.9	756
1183.52	726
1185.14	696
1186.75	700
1188.37	696
1189.99	708
1191.61	670
1193.23	686
1194.85	644
1196.46	654
1198.08	650
1199.7	644
1201.31	616
1202.93	632
1204.55	596
1206.16	624
1207.78	604
1209.39	616
1211.01	590
1212.62	590
1214.24	574
1215.85	582
1217.46	572
1219.08	560
1220.69	526
1222.3	528
1223.91	598
1225.53	552
1227.14	536
1228.75	544
1230.36	540
1231.97	510
1233.58	518
1235.19	516
1236.8	540
1238.41	546
1240.02	534
1241.63	536
1243.23	518
1244.84	530
1246.45	544
1248.06	524
1249.67	512
1251.27	528
1252.88	514
1254.48	500
1256.09	512
1257.7	540
1259.3	550
1260.91	544
1262.51	538
1264.12	518
1265.72	532
1267.32	534
1268.93	508
1270.53	534
1272.13	550
1273.73	532
1275.34	558
1276.94	526
1278.54	542
1280.14	546
1281.74	556
1283.35	560
1284.94	532
1286.54	558
1288.15	559
1289.74	560
1291.34	556
1292.94	572
1294.54	566
1296.14	598
1297.74	590
1299.33	588
1300.93	582
1302.53	630
1304.12	598
1305.72	644
1307.32	618
1308.91	624
1310.51	638
1312.1	644
1313.7	632
1315.29	672
1316.89	694
1318.48	648
1320.07	712
1321.67	666
1323.26	700
1324.85	688
1326.45	690
1328.04	732
1329.63	780
1331.22	692
1332.81	768
1334.4	794
1335.99	750
1337.58	748
1339.17	806
1340.77	774
1342.35	792
1343.94	820
1345.53	802
1347.12	796
1348.71	764
1350.3	778
1351.88	816
1353.47	804
1355.06	770
1356.64	762
1358.23	798
1359.82	740
1361.4	768
1362.99	742
1364.57	682
1366.16	708
1367.74	708
1369.33	692
1370.91	672
1372.49	694
1374.08	640
1375.66	676
1377.24	672
1378.82	644
1380.41	618
1381.99	648
1383.57	646
1385.15	598
1386.73	582
1388.31	596
1389.89	588
1391.47	580
1393.05	600
1394.63	568
1396.21	606
1397.79	560
1399.37	562
1400.95	564
1402.52	608
1404.1	588
1405.68	586
1407.25	600
1408.83	566
1410.41	556
1411.98	554
1413.56	558
1415.13	538
1416.71	548
1418.29	570
1419.86	556
1421.43	544
1423.01	562
1424.58	574
1426.15	550
1427.73	530
1429.3	552
1430.87	554
1432.44	532
1434.02	542
1435.59	546
1437.16	548
1438.73	552
1440.3	548
1441.87	576
1443.44	508
1445.01	556
1446.58	522
1448.15	536
1449.72	524
1451.29	542
1452.85	536
1454.42	540
1455.99	550
1457.56	552
1459.12	554
1460.69	560
1462.26	556
1463.82	534
1465.39	536
1466.95	560
1468.52	538
1470.08	546
1471.65	530
1473.21	534
1474.78	520
1476.34	562
1477.9	536
1479.47	524
1481.03	560
1482.59	576
1484.16	532
1485.72	532
1487.28	564
1488.84	568
1490.4	550
1491.96	520
1493.52	568
1495.08	562
1496.64	548
1498.2	570
1499.76	554
1501.32	566
1502.88	566
1504.44	554
1506	532
1507.55	532
1509.11	554
1510.67	586
1512.22	582
1513.78	562
1515.34	556
1516.89	590
1518.45	594
1520.01	572
1521.56	560
1523.11	586
1524.67	588
1526.22	584
1527.78	590
1529.33	580
1530.88	566
1532.44	604
1533.99	592
1535.54	592
1537.09	626
1538.65	576
1540.2	646
1541.75	612
1543.3	656
1544.85	642
1546.4	650
1547.95	630
1549.5	676
1551.05	660
1552.6	646
1554.15	694
1555.7	664
1557.25	668
1558.79	682
1560.34	692
1561.89	692
1563.43	680
1564.98	734
1566.53	700
1568.08	724
1569.62	744
1571.17	726
1572.71	786
1574.26	772
1575.8	762
1577.35	764
1578.89	806
1580.43	772
1581.98	768
1583.52	788
1585.06	762
1586.61	758
1588.15	744
1589.69	758
1591.23	778
1592.77	740
1594.32	724
1595.86	722
1597.4	710
1598.94	718
1600.48	674
1602.02	726
1603.56	708
1605.1	660
1606.64	659.446
1608.18	668.341
1609.71	682.291
1611.25	633.608
1612.79	655.558
1614.33	653.07
1615.86	637.923
1617.4	653.925
1618.94	645.401
1620.47	593.713
1622.01	610.672
1623.55	610.109
1625.08	579.58
1626.62	570.479
1628.15	589.582
1629.69	592.738
1631.22	552.326
1632.75	550.259
1634.29	561.73
1635.82	560.921
1637.35	535.591
1638.89	539.731
1640.42	519.386
1641.95	536.379
1643.48	541.32
1645.02	531.457
1646.55	549.526
1648.08	518.205
1649.61	524.055
1651.14	532.165
1652.67	492.354
1654.2	520.17
1655.73	514.924
1657.26	512.091
1658.79	491.607
1660.32	524.634
1661.84	529.273
1663.37	501.569
1664.9	503.946
1666.43	510.944
1667.96	504.191
1669.48	498.321
1671.01	491.85
1672.54	495.354
1674.06	498.511
1675.59	489.515
1677.11	475.334
1678.64	490.585
1680.16	481.463
1681.69	493.681
1683.21	505.057
1684.74	486.822
1686.26	493.985
1687.79	491.524
1689.31	486.708
1690.83	499.446
1692.35	478.962
1693.88	489.969
1695.4	485.526
1696.92	494.673
1698.44	495.236
1699.96	473.706
1701.48	492.798
1703.01	478.112
1704.53	494.462
1706.05	480.464
1707.57	468.379
1709.09	486.363
1710.6	468.12
1712.12	496.855
1713.64	499.298
1715.16	473.185
1716.68	478.148
1718.2	490.283
1719.71	493.807
1721.23	470.495
1722.75	483.856
1724.27	476.04
1725.78	480.251
1727.3	487.337
1728.81	490.718
1730.33	470.079
1731.84	472.52
1733.36	474.196
1734.88	475.32
1736.39	463.325
1737.9	474.472
1739.42	450.044
1740.93	474.466
1742.44	449.93
1743.96	473.269
1745.47	459.87
1746.98	465.692
1748.49	473.418
1750.01	471.228
1751.52	455.452
1753.03	475.48
1754.54	486.654
1756.05	454.032
1757.56	438.991
1757.63	438
1759.14	458
1760.66	448
1762.18	456
1763.69	464
1765.21	470
1766.72	484
1768.24	462
1769.75	488
1771.27	448
1772.78	458
1774.3	436
1775.81	490
1777.32	456
1778.84	468
1780.35	466
1781.86	458
1783.38	444
1784.89	486
1786.4	470
1787.91	464
1789.42	464
1790.93	486
1792.44	476
1793.95	462
1795.47	470
1796.98	464
1798.48	452
1799.99	464
1801.5	478
1803.01	476
1804.52	480
1806.03	472
1807.54	472
1809.04	468
1810.55	464
1812.06	470
1813.57	458
1815.07	478
1816.58	470
1818.08	462
1819.59	440
1821.09	474
1822.6	438
1824.11	462
1825.61	474
1827.11	474
1828.62	468
1830.12	444
1831.63	468
1833.13	448
1834.63	472
1836.13	440
1837.64	476
1839.14	464
1840.64	484
1842.14	494
1843.64	448
1845.14	468
1846.64	472
1848.14	472
1849.64	450
1851.14	468
1852.64	464
1854.14	492
1855.64	500
1857.14	442
1858.64	466
1860.14	460
1861.64	450
1863.13	486
1864.63	456
1866.13	486
1867.63	472
1869.12	484
1870.62	472
1872.11	486
1873.61	458
1875.1	464
1876.6	472
1878.09	470
1879.59	480
1881.08	464
1882.58	466
1884.07	512
1885.56	468
1887.06	474
1888.55	474
1890.04	470
1891.54	472
1893.03	468
1894.52	480
1896.01	494
1897.5	470
1898.99	468
1900.48	458
1901.97	478
1903.46	456
1904.96	480
1906.44	488
1907.93	482
1909.42	466
1910.91	500
1912.4	486
1913.89	464
1915.38	452
1916.86	478
1918.35	488
1919.84	468
1921.32	484
1922.81	506
1924.3	482
1925.78	474
1927.27	476
1928.76	486
1930.24	502
1931.72	484
1933.21	452
1934.69	484
1936.18	466
1937.66	486
1939.15	494
1940.63	482
1942.11	488
1943.59	466
1945.08	478
1946.56	446
1948.04	490
1949.52	476
1951	486
1952.48	480
1953.97	462
1955.45	468
1956.93	462
1958.41	466
1959.89	496
1961.37	474
1962.85	474
1964.32	478
1965.8	474
1967.28	474
1968.76	488
1970.24	472
1971.71	460
1973.19	478
1974.67	480
1976.15	458
1977.62	488
1979.1	462
1980.57	458
1982.05	464
1983.53	488
1985	500
1986.48	462
1987.95	476
1989.42	456
1990.9	446
1992.37	480
1993.85	494
1995.32	464
1996.79	466
1998.26	452
1999.74	462
2001.21	478
2002.68	468
2004.15	468
2005.62	502
2007.09	436
2008.56	482
2010.03	480
2011.51	468
2012.98	454
2014.44	504
2015.92	474
2017.38	496
2018.85	456
2020.32	484
2021.79	506
2023.26	494
2024.73	476
2026.19	494
2027.66	484
2029.13	496
2030.59	470
2032.06	484
2033.53	474
2034.99	492
2036.46	464
2037.92	512
2039.39	482
2040.85	512
2042.32	486
2043.78	490
2045.25	488
2046.71	482
2048.17	468
2049.64	500
2051.1	470
2052.56	480
2054.02	502
2055.49	510
2056.95	490
2058.41	482
2059.87	470
2061.33	482
2062.79	490
2064.25	486
2065.71	462
2067.17	478
2068.63	482
2070.09	498
2071.55	490
2073.01	478
2074.47	470
2075.93	494
2077.39	510
2078.84	506
2080.3	490
2081.76	496
2083.22	482
2084.67	478
2086.13	492
2087.59	486
2089.04	508
2090.5	466
2091.95	474
2093.41	504
2094.86	488
2096.32	476
2097.77	492
2099.23	474
2100.68	492
2102.13	490
2103.59	488
2105.04	494
2106.49	486
2107.95	500
2109.4	484
2110.85	494
2112.3	494
2113.75	498
2115.21	478
2116.66	460
2118.11	504
2119.56	498
2121.01	478
2122.46	490
2123.91	500
2125.36	470
2126.8	496
2128.25	500
2129.7	500
2131.15	474
2132.6	498
2134.05	506
2135.49	492
2136.94	484
2138.39	484
2139.83	490
2141.28	508
2142.73	492
2144.17	484
2145.62	470
2147.06	506
2148.51	478
2149.95	492
2151.4	484
2152.84	510
2154.29	488
2155.73	484
2157.17	496
2158.62	496
2160.06	508
2161.5	492
2162.95	470
2164.39	514
2165.83	508
2167.27	510
2168.71	484
2170.15	502
2171.59	502
2173.04	496
2174.48	528
2175.92	494
2177.36	482
2178.79	504
2180.24	504
2181.67	476
2183.11	472
2184.55	506
2185.99	500
2187.43	464
2188.86	492
2190.3	496
2191.74	500
2193.18	524
2194.61	496
2196.05	486
2197.49	494
2198.92	488
2200.36	466
2201.79	470
2203.23	488
2204.66	502
2206.1	492
2207.53	488
2208.97	514
2210.4	484
2211.83	480
2213.27	484
2214.7	474
2216.13	482
2217.57	498
2219	482
2220.43	508
2221.86	492
2223.29	454
2224.72	500
2226.15	478
2227.59	468
2229.02	484
2230.45	464
2231.88	472
2233.31	498
2234.74	488
2236.16	484
2237.59	498
2239.02	496
2240.45	474
2241.88	488
2243.31	470
2244.73	474
2246.16	498
2247.59	470
2249.01	488
2250.44	490
2251.87	478
2253.29	508
2254.72	484
2256.15	484
2257.57	478
2259	418
2260.42	476
2261.84	494
2263.27	484
2264.69	506
2266.12	488
2267.54	460
2268.96	486
2270.39	488
2271.81	470
2273.23	462
2274.65	494
2276.07	476
2277.5	462
2278.92	484
2280.34	482
2281.76	468
2283.18	482
2284.6	484
2286.02	484
2287.44	504
2288.86	486
2290.28	488
2291.7	478
2293.12	502
2294.54	518
2295.95	520
2297.37	504
2298.79	502
2300.21	482
2301.62	482
2303.04	484
2304.46	516
2305.88	490
2307.29	510
2308.71	494
2310.12	522
2311.54	514
2312.95	520
2314.37	496
2315.78	510
2317.2	512
2318.61	532
2320.02	504
2321.44	522
2322.85	544
2324.27	530
2325.68	514
2327.09	542
2328.5	576
2329.92	548
2331.33	546
2332.74	524
2334.15	538
2335.56	530
2336.97	536
2338.38	540
2339.79	546
2341.2	554
2342.61	536
2344.02	542
2345.43	554
2346.84	536
2348.25	542
2349.66	560
2351.07	534
2352.48	554
2353.88	554
2355.29	552
2356.7	574
2358.11	546
2359.51	526
2360.92	568
2362.32	578
2363.73	542
2365.14	578
2366.54	578
2367.95	586
2369.35	582
2370.76	594
2372.16	604
2373.57	588
2374.97	608
2376.37	556
2377.78	548
2379.18	586
2380.58	598
2381.99	612
2383.39	606
2384.79	606
2386.19	620
2387.59	622
2389	606
2390.4	590
2391.8	598
2393.2	612
2394.6	600
2396	604
2397.4	594
2398.8	580
2400.2	630
2401.6	628
2403	584
2404.39	624
2405.79	640
2407.19	610
2408.59	614
2409.99	626
2411.38	654
2412.78	610
2414.18	616
2415.57	650
2416.97	644
2418.37	630
2419.76	612
2421.16	592
2422.55	612
2423.95	592
2425.34	630
2426.74	656
2428.13	610
2429.53	614
2430.92	644
2432.31	620
2433.71	630
2435.1	636
2436.49	642
2437.89	616
2439.28	652
2440.67	632
2442.06	636
2443.45	614
2444.85	630
2446.24	610
2447.63	640
2449.02	634
2450.41	646
2451.8	636
2453.19	612
2454.58	650
2455.97	634
2457.36	622
2458.75	646
2460.13	618
2461.52	596
2462.91	630
2464.3	636
2465.69	650
2467.07	634
2468.46	592
2469.85	630
2471.24	620
2472.62	632
2474.01	634
2475.39	642
2476.78	638
2478.16	646
2479.55	646
2480.94	652
2482.32	624
2483.7	640
2485.09	652
2486.47	642
2487.85	632
2489.24	656
2490.62	632
2492	640
2493.39	614
2494.77	654
2496.15	612
2497.53	618
2498.92	630
2500.3	604
2501.68	634
2503.06	608
2504.44	624
2505.82	600
2507.2	634
2508.58	636
2509.96	626
2511.34	658
2512.72	622
2514.1	652
2515.48	626
2516.85	636
2518.23	632
2519.61	638
2520.99	648
2522.37	634
2523.74	634
2525.12	632
2526.5	636
2527.87	634
2529.25	634
2530.63	630
2532	624
2533.38	612
2534.75	632
2536.13	620
2537.5	642
2538.88	674
2540.25	630
2541.62	630
2543	656
2544.37	622
2545.75	636
2547.12	644
2548.49	648
2549.86	624
2551.24	646
2552.61	632
2553.98	638
2555.35	638
2556.72	650
2558.09	610
2559.47	604
2560.84	650
2562.21	650
2563.57	634
2564.95	644
2566.32	634
2567.68	624
2569.05	634
2570.42	640
2571.79	624
2573.16	648
2574.53	640
2575.9	642
2577.26	632
2578.63	634
2580	654
2581.36	646
2582.73	660
2584.1	644
2585.46	658
2586.83	644
2588.19	636
2589.56	638
2590.93	646
2592.29	658
2593.66	646
2595.02	672
2596.39	648
2597.75	640
2599.11	662
2600.47	628
2601.84	652
2603.2	648
2604.56	644
2605.93	650
2607.29	672
2608.65	672
2610.01	646
2611.38	660
2612.74	636
2614.1	644
2615.46	676
2616.82	652
2618.18	664
2619.54	642
2620.9	650
2622.26	672
2623.62	672
2624.98	662
2626.34	654
2627.69	676
2629.05	670
2630.41	688
2631.77	676
2633.13	686
2634.48	684
2635.84	652
2637.2	672
2638.56	640
2639.91	698
2641.27	688
2642.62	664
2643.98	666
2645.33	680
2646.69	708
2648.05	674
2649.4	680
2650.75	674
2652.11	666
2653.46	658
2654.82	702
2656.17	692
2657.52	712
2658.88	682
2660.23	702
2661.58	686
2662.94	686
2664.29	630
2665.64	712
2666.99	702
2668.34	694
2669.69	690
2671.04	726
2672.39	704
2673.75	694
2675.09	724
2676.45	700
2677.79	704
2679.14	690
2680.49	736
2681.84	708
2683.19	690
2684.54	688
2685.89	704
2687.24	698
2688.58	714
2689.93	700
2691.28	688
2692.63	722
2693.97	722
2695.32	712
2696.67	702
2698.01	728
2699.36	706
2700.7	712
2702.05	698
2703.39	720
2704.74	738
2706.08	702
2707.43	696
2708.77	738
2710.12	718
2711.46	706
2712.8	748
2714.15	728
2715.49	680
2716.83	698
2718.17	718
2719.52	706
2720.86	710
2722.2	710
2723.54	672
2724.88	702
2726.22	700
2727.57	722
2728.91	672
2730.25	682
2731.59	724
2732.93	722
2734.27	704
2735.61	712
2736.95	712
2738.28	696
2739.62	702
2740.96	734
2742.3	756
2743.64	728
2744.98	684
2746.31	706
2747.65	694
2748.99	678
2750.33	726
2751.66	736
2753	710
2754.33	728
2755.67	716
2757.01	718
2758.34	692
2759.68	722
2761.01	718
2762.35	716
2763.68	724
2765.01	716
2766.35	750
2767.68	728
2769.02	686
2770.35	710
2771.68	722
2773.02	728
2774.35	698
2775.68	734
2777.01	724
2778.35	742
2779.68	750
2781.01	724
2782.34	728
2783.67	726
2785	690
2786.33	718
2787.66	738
2788.99	736
2790.32	726
2791.65	744
2792.98	740
2794.31	756
2795.64	710
2796.97	718
2798.3	702
2799.62	718
2800.95	750
2802.28	742
2803.61	714
2804.93	726
2806.26	718
2807.59	728
2808.91	742
2810.24	724
2811.57	740
2812.89	754
2814.22	754
2815.54	752
2816.87	746
2818.19	734
2819.52	716
2820.84	728
2822.17	756
2823.49	730
2824.81	724
2826.14	732
2827.46	758
2828.78	772
2830.11	726
2831.43	734
2832.75	774
2834.07	750
2835.39	738
2836.72	748
2838.04	784
2839.36	768
2840.68	770
2842	756
2843.32	776
2844.64	770
2845.96	790
2847.28	762
2848.6	760
2849.92	756
2851.24	776
2852.56	788
2853.88	734
2855.19	762
2856.51	792
2857.83	782
2859.15	792
2860.46	782
2861.78	782
2863.1	806
2864.42	764
2865.73	772
2867.05	778
2868.36	802
2869.68	800
2871	798
2872.31	784
2873.63	768
2874.94	800
2876.26	768
2877.57	748
2878.88	802
2880.2	804
2881.51	798
2882.82	806
2884.14	800
2885.45	814
2886.76	806
2888.08	786
2889.39	768
2890.7	780
2892.01	802
2893.33	802
2894.64	782
2895.95	794
2897.26	814
2898.57	762
2899.88	774
2901.19	786
2902.5	804
2903.81	786
2905.12	830
2906.43	794
2907.74	792
2909.05	818
2910.35	804
2911.66	812
2912.97	818
2914.28	836
2915.59	796
2916.89	832
2918.2	818.034
2919.51	818.056
2920.82	827.387
2922.12	830.216
2923.43	830.632
2924.73	828.34
2926.04	839.143
2927.35	865.203
2928.65	817.264
2929.96	833.129
2931.26	818.16
2932.57	838.429
2933.87	828.699
2935.17	801.844
2936.48	841.465
2937.78	791.429
2939.09	825.93
2940.39	840.026
2941.69	835.112
2943	837.737
2944.3	837.468
2945.6	834.014
2946.9	835.257
2948.2	839.478
2949.51	813.534
2950.81	821.519
2952.11	844.762
2953.41	834.762
2954.71	825.753
2956.01	831.68
2957.31	860.107
2958.61	840.507
2959.91	848.836
2961.21	838.823
2962.51	837.413
2963.81	858.613
2965.11	839.832
2966.41	852.535
2967.71	878.376
2969.01	891.141
2970.3	857.55
2971.6	879.264
2972.9	854.364
2974.2	852.864
2975.49	853.049
2976.79	854.013
2978.09	846.202
2979.39	859.891
2980.68	872.052
2981.98	869.895
2983.27	868.892
2984.57	870.205
2985.86	870.185
2987.16	876.541
2988.45	867.504
2989.75	869.281
2991.04	892.531
2992.34	878.033
2993.63	872.986
2994.93	872.204
2996.22	870.861
2997.51	879.4
2998.81	877.067
3000.1	890.592
3001.39	878.225
3002.68	883.631
3003.98	890.989
3005.27	889.861
3006.56	887.311
3007.85	884.938
3009.14	887.96
3010.43	901.178
3011.72	897.621
3013.01	886.25
3014.31	902.892
3015.59	884.548
3016.89	871.799
3018.18	896.472
3019.47	898.598
3020.75	887.698
3022.04	888.331
3023.33	886.791
3024.62	911.771
3025.91	902.043
3027.2	879.5
3028.48	917.869
3029.77	919.36
3031.06	902.525
3032.35	907.655
3033.64	923.239
3034.92	921.945
3036.21	916.291
3037.5	912.653
3038.78	927.435
3040.07	918.837
3041.35	928.455
3042.64	943.356
3043.92	930.647
3045.21	929.953
3046.49	937.579
3047.78	919.347
3048.11	912
3049.4	930
3050.69	956
3051.98	898
3053.27	922
3054.56	956
3055.85	976
3057.14	932
3058.43	952
3059.72	942
3061.01	918
3062.29	936
3063.58	956
3064.87	924
3066.16	950
3067.44	958
3068.73	964
3070.02	920
3071.31	946
3072.59	962
3073.88	936
3075.16	968
3076.45	974
3077.73	918
3079.02	942
3080.31	948
3081.59	958
3082.87	958
3084.16	962
3085.44	970
3086.73	976
3088.01	976
3089.29	994
3090.58	1006
3091.86	974
3093.14	984
3094.43	1008
3095.71	1000
3096.99	976
3098.27	1004
3099.55	922
3100.84	988
3102.12	986
3103.4	1004
3104.68	1014
3105.96	1006
3107.24	972
3108.52	996
3109.8	982
3111.08	1032
3112.36	1016
3113.64	1016
3114.92	984
3116.2	976
3117.48	1044
3118.75	1024
3120.03	976
3121.31	1022
3122.59	1006
3123.87	1008
3125.14	1000
3126.42	1002
3127.7	1030
3128.97	994
3130.25	1020
3131.53	1024
3132.8	1008
3134.08	1006
3135.35	1034
3136.63	1018
3137.9	1058
3139.18	1018
3140.45	1046
3141.73	1070
3143	1038
3144.28	1034
3145.55	1056
3146.82	1068
3148.1	1060
3149.37	1066
3150.64	1076
3151.92	1046
3153.19	1088
3154.46	1050
3155.73	1070
3157.01	1066
3158.28	1066
3159.55	1066
3160.82	1086
3162.09	1090
3163.36	1062
3164.63	1092
3165.9	1076
3167.17	1094
3168.44	1070
3169.71	1096
3170.98	1082
3172.25	1094
3173.52	1098
3174.79	1104
3176.06	1066
3177.32	1098
3178.59	1128
3179.86	1094
3181.13	1070
3182.4	1090
3183.66	1082
3184.93	1114
3186.2	1102
3187.46	1076
3188.73	1094
3190	1096
3191.26	1132
3192.53	1104
3193.79	1112
3195.06	1108
3196.32	1086
3197.59	1116
3198.85	1142
3200.12	1086
3201.38	1122
3202.65	1074
3203.91	1116
3205.17	1102
3206.44	1110
3207.7	1096
3208.96	1102
3210.23	1098
3211.49	1128
3212.75	1110
3214.01	1106
3215.27	1144
3216.54	1128
3217.8	1120
3219.06	1120
3220.32	1090
3221.58	1140
3222.84	1114
3224.1	1118
3225.36	1140
3226.62	1106
3227.88	1116
3229.14	1154
3230.4	1134
3231.66	1104
3232.92	1130
3234.18	1110
3235.44	1168
3236.69	1174
3237.95	1128
3239.21	1158
3240.47	1134
3241.72	1172
3242.98	1118
3244.24	1146
3245.5	1164
3246.75	1164
3248.01	1146
3249.26	1160
3250.52	1172
3251.78	1148
3253.03	1180
3254.29	1138
3255.54	1152
3256.8	1186
3258.05	1162
3259.3	1178
3260.56	1182
3261.81	1186
3263.07	1202
3264.32	1186
3265.57	1186
3266.83	1158
3268.08	1180
3269.33	1172
3270.58	1216
3271.84	1192
3273.09	1192
3274.34	1190
3275.59	1200
3276.84	1198
3278.09	1168
3279.35	1178
3280.6	1220
3281.85	1242
3283.1	1218
3284.35	1192
3285.6	1192
3286.85	1232
3288.1	1228
3289.35	1224
3290.59	1214
3291.84	1244
3293.09	1240
3294.34	1228
3295.59	1254
3296.84	1250
3298.08	1208
3299.33	1254
3300.58	1214
3301.83	1244
3303.07	1238
3304.32	1238
3305.57	1228
3306.81	1264
3308.06	1264
3309.3	1236
3310.55	1232
3311.79	1278
3313.04	1230
3314.29	1272
3315.53	1254
3316.77	1288
3318.02	1270
3319.26	1284
3320.51	1232
3321.75	1316
3322.99	1300
3324.24	1288
3325.48	1268
3326.72	1328
3327.97	1296
3329.21	1264
3330.45	1306
3331.69	1280
3332.93	1304
3334.18	1288
3335.42	1274
3336.66	1302
3337.9	1316
3339.14	1330
3340.38	1300
3341.62	1318
3342.86	1300
3344.1	1320
3345.34	1280
3346.58	1318
3347.82	1286
3349.06	1296
3350.3	1348
3351.54	1308
3352.77	1292
3354.01	1322
3355.25	1338
3356.49	1350
3357.73	1310
3358.96	1344
3360.2	1314
3361.44	1296
3362.67	1322
3363.91	1346
3365.15	1314
3366.38	1322
3367.62	1318
3368.85	1350
3370.09	1322
3371.33	1360
3372.56	1302
3373.8	1310
3375.03	1342
3376.26	1302
3377.5	1374
3378.73	1340
3379.97	1322
3381.2	1338
3382.43	1372
3383.67	1320
3384.9	1350
3386.13	1328
3387.37	1322
3388.6	1372
3389.83	1390
3391.06	1324
3392.29	1360
3393.52	1314
3394.76	1354
3395.99	1386
3397.22	1348
3398.45	1360
3399.68	1350
3400.91	1330
3402.14	1368
3403.37	1354
3404.6	1344
3405.83	1404
3407.06	1398
3408.29	1380
3409.51	1388
3410.74	1340
3411.97	1408
3413.2	1350
3414.43	1376
3415.66	1410
3416.88	1370
3418.11	1380
3419.34	1430
3420.56	1386
3421.79	1420
3423.02	1410
3424.24	1416
3425.47	1378
3426.7	1396
3427.92	1404
3429.15	1396
3430.37	1424
3431.6	1434
3432.82	1418
3434.05	1464
3435.27	1442
3436.5	1448
3437.72	1450
3438.94	1458
3440.17	1440
3441.39	1458
3442.61	1450
3443.84	1458
3445.06	1458
3446.28	1466
3447.51	1460
3448.73	1462
3449.95	1458
3451.17	1480
3452.39	1464
3453.61	1472
3454.83	1500
3456.06	1482
3457.28	1478
3458.5	1438
3459.72	1488
3460.94	1452
3462.16	1470
3463.38	1500
3464.6	1504
3465.82	1498
3467.04	1504
3468.25	1490
3469.47	1526
3470.69	1522
3471.91	1522
3473.13	1524
3474.34	1492
3475.56	1544
3476.78	1486
3478	1482
3479.21	1538
3480.43	1532
3481.65	1466
3482.86	1504
3484.08	1502
3485.3	1534
3486.51	1534
3487.73	1526
3488.94	1532
3490.16	1508
3491.37	1492
3492.59	1504
3493.8	1544
3495.02	1532
3496.23	1508
3497.45	1534
3498.66	1530
3499.87	1552
3501.09	1524
3502.3	1522
3503.51	1506
3504.72	1494
3505.94	1496
3507.15	1486
3508.36	1530
3509.57	1506
3510.79	1528
3512	1552
3513.21	1496
3514.42	1568
3515.63	1522
3516.84	1538
3518.05	1498
3519.26	1556
3520.47	1538
3521.68	1540
3522.89	1538
3524.1	1524
3525.31	1558
3526.52	1528
3527.73	1552
3528.94	1534
3530.14	1528
3531.35	1522
3532.56	1506
3533.77	1526
3534.98	1510
3536.18	1572
3537.39	1538
3538.6	1526
3539.81	1548
3541.01	1574
3542.22	1562
3543.42	1530
3544.63	1532
3545.84	1576
3547.04	1540
3548.25	1538
3549.45	1586
3550.66	1552
3551.86	1586
3553.07	1542
3554.27	1570
3555.47	1508
3556.68	1550
3557.88	1574
3559.09	1590
3560.29	1554
3561.49	1578
3562.7	1608
3563.9	1566
3565.1	1590
3566.3	1584
3567.51	1572
3568.71	1574
3569.91	1600
3571.11	1614
3572.31	1618
3573.51	1642
3574.71	1604
3575.92	1586
3577.12	1608
3578.32	1596
3579.52	1626
3580.72	1640
3581.92	1616
3583.12	1674
3584.31	1638
3585.51	1612
3586.71	1644
3587.91	1640
3589.11	1642
3590.31	1600
3591.51	1688
3592.71	1632
3593.9	1646
3595.1	1652
3596.3	1682
3597.49	1670
3598.69	1640
3599.89	1660
3601.08	1676
3602.28	1678
3603.48	1668
3604.67	1684
3605.87	1608
3607.06	1670
3608.26	1700
3609.45	1704
3610.65	1698
3611.84	1738
3613.04	1716
3614.23	1680
3615.43	1726
3616.62	1704
3617.82	1626
3619.01	1678
3620.2	1742
3621.39	1696
3622.59	1708
3623.78	1696
3624.97	1718
3626.17	1740
3627.36	1736
3628.55	1710
3629.74	1744
3630.93	1718
3632.12	1730
3633.31	1694
3634.51	1688
3635.7	1716
3636.89	1694
3638.08	1688
3639.27	1732
3640.46	1686
3641.65	1720
3642.84	1704
3644.03	1712
3645.22	1750
3646.4	1712
3647.59	1706
3648.78	1712
3649.97	1732
3651.16	1738
3652.35	1728
3653.53	1682
3654.72	1734
3655.91	1710
3657.1	1742
3658.28	1730
3659.47	1710
3660.66	1724
3661.84	1756
3663.03	1714
3664.21	1736
3665.4	1738
3666.59	1756
3667.77	1700
3668.96	1732
3670.14	1774
3671.33	1740
3672.51	1682
3673.69	1742
3674.88	1754
3676.06	1728
3677.25	1766
3678.43	1772
3679.61	1788
3680.8	1740
3681.98	1746
3683.16	1738
3684.34	1758
3685.53	1752
3686.71	1702
3687.89	1742
3689.07	1738
3690.25	1758
3691.44	1796
3692.62	1748
3693.8	1730
3694.98	1742
3696.16	1750
3697.34	1770
3698.52	1760
3699.7	1746
3700.88	1764
3702.06	1724
3703.24	1764
3704.42	1784
3705.6	1818
3706.78	1786
3707.96	1778
3709.13	1800
3710.31	1776
3711.49	1820
3712.67	1764
3713.85	1798
3715.02	1796
3716.2	1768
3717.38	1824
3718.56	1814
3719.73	1828
3720.91	1796
3722.08	1802
3723.26	1834
3724.44	1768
3725.61	1788
3726.79	1820
3727.96	1824
3729.14	1766
3730.31	1880
3731.49	1778
3732.66	1842
3733.84	1850
3735.01	1838
3736.18	1882
3737.36	1888
3738.53	1862
3739.7	1828
3740.88	1852
3742.05	1864
3743.22	1852
3744.4	1846
3745.57	1876
3746.74	1874
3747.91	1904
3749.09	1874
3750.26	1902
3751.43	1876
3752.6	1866
3753.77	1884
3754.94	1914
3756.11	1894
3757.28	1900
3758.45	1894
3759.62	1894
3760.79	1900
3761.96	1942
3763.13	1930
3764.3	1918
3765.47	1910
3766.64	1920
3767.81	1898
3768.98	1928
3770.14	1944
3771.31	1940
3772.48	1926
3773.65	1950
3774.82	1996
3775.98	1948
3777.15	1932
3778.32	1916
3779.48	1918
3780.65	1896
3781.82	1968
3782.98	1938
3784.15	1954
3785.32	1952
3786.48	1924
3787.65	1930
3788.81	1932
3789.98	1938
3791.14	1882
3792.3	1898
3793.47	1954
3794.63	1952
3795.8	1890
3796.96	1944
3798.13	1986
3799.29	1918
3800.45	1908
3801.61	1948
3802.78	1890
3803.94	1906
3805.1	1916
3806.27	1970
3807.43	1954
3808.59	1947
3809.75	1938
3810.91	1936
3812.07	1964
3813.24	1954
3814.4	1916
3815.56	1926
3816.72	1944
3817.88	1930
3819.04	1960
3820.2	1942
3821.36	1958
3822.52	1940
3823.68	1986
3824.84	1940
3826	1932
3827.15	1926
3828.31	1914
3829.47	1928
3830.63	1948
3831.79	1940
3832.95	1926
3834.1	1918
3835.26	1892
3836.42	1916
3837.58	1930
3838.73	1914
3839.89	1928
3841.04	1986
3842.2	1958
3843.36	1948
3844.51	1958
3845.67	1948
3846.83	1942
3847.98	1968
3849.14	1938
3850.29	1988
3851.45	1976
3852.6	1948
3853.76	1974
3854.91	2004
3856.06	1946
3857.22	1978
3858.37	1954
3859.52	1992
3860.68	1998
3861.83	1960
3862.98	2000
3864.14	1988
3865.29	2016
3866.44	2016
3867.59	1978
3868.75	1972
3869.9	2036
3871.05	1980
3872.2	2030
3873.35	1994
3874.5	2000
3875.65	2046
3876.8	2036
3877.95	2018
3879.1	2038
3880.25	2010
3881.4	2044
3882.55	2086
3883.7	2026
3884.85	2014
3886	2072
3887.15	2028
3888.3	2038
3889.45	2026
3890.6	2042
3891.75	2080
3892.89	2014
3894.04	2054
3895.19	2012
3896.34	2102
3897.48	2084
3898.63	2024
3899.78	2100
3900.92	2110
3902.07	2080
3903.22	2076
3904.36	2096
3905.51	2090
3906.65	2088
3907.8	2084
3908.94	2066
3910.09	2114
3911.23	2040
3912.38	2132
3913.52	2128
3914.67	2130
3915.81	2104
3916.96	2120
3918.1	2124
3919.24	2080
3920.39	2114
3921.53	2152
3922.67	2144
3923.82	2110
3924.96	2090
3926.1	2114
3927.24	2182
3928.39	2102
3929.53	2152
3930.67	2134
3931.81	2130
3932.95	2118
3934.09	2130
3935.24	2128
3936.38	2144
3937.52	2106
3938.66	2108
3939.8	2124
3940.94	2188
3942.08	2108
3943.22	2128
3944.36	2186
3945.5	2126
3946.63	2138
3947.77	2138
3948.91	2134
3950.05	2140
3951.19	2114
3952.33	2190
3953.47	2150
3954.6	2130
3955.74	2154
3956.88	2164
3958.02	2122
3959.15	2160
3960.29	2146
3961.43	2136
3962.56	2218
3963.7	2142
3964.84	2140
3965.97	2068
3967.11	2148
3968.24	2106
3969.38	2202
3970.51	2108
3971.65	2132
3972.78	2150
3973.92	2130
3975.05	2184
3976.19	2158
3977.32	2158
3978.45	2154
3979.59	2156
3980.72	2108
3981.85	2184
3982.99	2166
3984.12	2144
3985.25	2152
3986.39	2166
3987.52	2160
3988.65	2216
3989.78	2178
3990.91	2120
3992.05	2146
3993.18	2106
3994.31	2122
3995.44	2124
3996.57	2144
3997.7	2120
3998.83	2164
3999.96	2196
