#Acq. time (s)=	20
#Accumulations=	2
#Range (cm-¹)=	50...4000
#Windows=	3
#Autofocus=	Off
#AutoExposure=	Off
#Spike filter=	Multiple accum.
#Delay time (s)=	0
#Binning=	1
#Readout mode=	Signal
#DeNoise=	Off
#ICS correction=	Off
#Dark correction=	Off
#Inst. Process=	Off
#Instrument=	LabRAM HR Evol
#Detector=	Syncerity OE
#Objective=	x100_VIS
#Grating=	600 (500nm)
#ND Filter=	100%
#Laser=	532nm_Edge
#Hole=	100.021
#Range=	Visible
#Project=	Omar
#Sample=	
#Site=	21-09-22
#Title=	 CN-Sastre
#Remark=	
#Date=	21.09.2022 14:49
#Acquired=	21.09.2022 14:49:48
51.0918	44
52.9354	44
54.7807	52
56.6235	72
58.4681	90
60.3102	134
62.154	192
63.9954	246
65.8385	310
67.6792	378
69.5216	476
71.3615	644
73.2032	828
75.0424	968
76.8834	1086
78.7218	1200
80.5621	1328
82.3998	1524
84.2393	1576
86.0764	1684
87.9152	1708
89.7515	1812
91.5874	1794
93.4251	1766
95.2603	1730
97.0973	1712
98.9318	1732
100.766	1728
102.602	1766
104.435	1804
106.27	1872
108.103	1796
109.936	1808
111.77	1850
113.601	1866
115.433	1866
117.266	1788
119.096	1794
120.926	1816
122.758	1806
124.588	1760
126.417	1728
128.246	1706
130.076	1766
131.904	1738
133.732	1738
135.561	1756
137.388	1788
139.215	1702
141.041	1732
142.869	1770
144.695	1720
146.52	1736
148.345	1700
150.171	1742
151.995	1728
153.819	1734
155.642	1682
157.465	1704
159.29	1700
161.112	1700
162.934	1712
164.756	1706
166.577	1684
168.398	1690
170.219	1632
172.041	1616
173.861	1638
175.68	1690
177.499	1612
179.318	1636
181.137	1666
182.955	1610
184.772	1608
186.592	1612
188.409	1624
190.225	1672
192.042	1628
193.857	1626
195.673	1618
197.488	1582
199.303	1610
201.118	1574
202.932	1568
204.746	1610
206.559	1588
208.372	1574
210.185	1572
211.997	1564
213.809	1588
215.621	1584
217.432	1530
219.243	1506
221.054	1514
222.864	1540
224.674	1536
226.483	1560
228.293	1544
230.101	1506
231.91	1556
233.718	1492
235.524	1564
237.331	1520
239.138	1522
240.945	1504
242.751	1500
244.557	1522
246.363	1534
248.168	1542
249.971	1506
251.776	1568
253.58	1516
255.384	1562
257.188	1528
258.991	1542
260.792	1550
262.594	1506
264.396	1544
266.198	1524
268	1516
269.799	1556
271.599	1502
273.4	1554
275.2	1496
277	1520
278.797	1516
280.596	1514
282.395	1564
284.193	1532
285.989	1538
287.786	1526
289.584	1544
291.378	1528
293.175	1544
294.971	1568
296.765	1526
298.561	1556
300.356	1572
302.148	1582
303.943	1538
305.737	1536
307.529	1540
309.322	1566
311.115	1576
312.906	1548
314.698	1546
316.49	1580
318.28	1598
320.071	1566
321.86	1596
323.651	1570
325.441	1592
327.229	1602
329.019	1562
330.806	1556
332.595	1578
334.381	1564
336.17	1608
337.955	1562
339.743	1550
341.528	1574
343.315	1578
345.099	1582
346.885	1576
348.669	1572
350.455	1592
352.238	1582
354.022	1564
355.805	1580
357.589	1586
359.371	1540
361.154	1570
362.935	1584
364.718	1550
366.498	1562
368.278	1584
370.06	1594
371.839	1626
373.62	1610
375.398	1596
377.177	1592
378.956	1628
380.734	1640
382.513	1618
384.29	1556
386.067	1662
387.845	1644
389.621	1632
391.396	1676
393.173	1656
394.948	1640
396.723	1630
398.499	1566
400.273	1628
402.046	1560
403.819	1618
405.594	1682
407.366	1632
409.138	1626
410.91	1616
412.683	1630
414.454	1594
416.225	1638
417.995	1670
419.768	1640
421.537	1626
423.307	1640
425.076	1656
426.844	1644
428.615	1622
430.382	1598
432.15	1704
433.917	1598
435.684	1642
437.451	1626
439.219	1680
440.985	1700
442.751	1608
444.516	1624
446.281	1686
448.045	1630
449.81	1658
451.574	1618
453.337	1664
455.102	1622
456.865	1664
458.628	1668
460.39	1654
462.152	1622
463.913	1646
465.674	1622
467.435	1640
469.196	1660
470.956	1666
472.716	1612
474.475	1648
476.234	1660
477.993	1652
479.752	1662
481.51	1598
483.268	1604
485.025	1634
486.782	1594
488.539	1622
490.295	1618
492.051	1584
493.807	1568
495.563	1584
497.316	1582
499.07	1580
500.825	1564
502.579	1558
504.333	1470
506.086	1578
507.839	1560
509.592	1598
511.344	1584
513.094	1552
514.846	1584
516.597	1608
518.349	1590
520.099	1618
521.85	1588
523.598	1656
525.347	1664
527.097	1696
528.846	1730
530.595	1718
532.341	1802
534.089	1816
535.837	1924
537.584	1960
539.329	1982
541.076	1996
542.822	2062
544.568	2066
546.312	2120
548.057	2170
549.802	2192
551.545	2170
553.289	2222
555.033	2236
556.775	2226
558.518	2190
560.261	2218
562.002	2226
563.744	2186
565.487	2182
567.226	2132
568.968	2148
570.709	2080
572.447	2154
574.188	2064
575.926	2066
577.665	2046
579.405	2016
581.142	2036
582.88	1970
584.617	1970
586.355	1910
588.091	1900
589.828	1838
591.565	1874
593.3	1860
595.036	1784
596.77	1798
598.506	1788
600.239	1774
601.974	1750
603.707	1694
605.442	1726
607.174	1662
608.905	1690
610.639	1670
612.37	1632
614.103	1594
615.833	1572
617.565	1536
619.295	1520
621.026	1552
622.755	1542
624.484	1498
626.215	1502
627.943	1472
629.67	1498
631.4	1484
633.127	1482
634.856	1440
636.582	1406
638.308	1412
640.036	1444
641.762	1384
643.487	1380
645.214	1378
646.938	1376
648.662	1320
650.386	1308
652.112	1308
653.835	1276
655.558	1298
657.282	1270
659.005	1216
660.726	1220
662.448	1218
664.171	1184
665.892	1210
667.613	1166
669.333	1162
671.053	1166
672.774	1116
674.494	1098
676.213	1084
677.931	1092
679.649	1058
681.369	1074
683.087	1072
684.804	1004
686.521	1016
688.238	1026
689.954	984
691.67	982
693.386	968
695.103	956
696.818	964
698.533	928
700.247	928
701.961	922
703.675	926
705.389	902
707.102	878
708.814	892
710.527	854
712.239	836
713.951	856
715.662	834
717.373	852
719.084	818
720.795	830
722.505	840
724.215	814
725.924	850
727.633	832
729.342	806
731.051	804
732.759	792
734.467	792
736.174	776
737.882	808
739.589	766
741.295	792
742.999	782
744.705	786
746.411	794
748.116	820
749.821	758
751.526	798
753.23	812
754.934	804
756.636	786
758.34	826
760.043	802
761.745	830
763.448	830
765.148	856
766.85	808
768.551	846
770.252	836
771.953	876
773.652	874
775.352	842
777.052	856
778.751	830
780.448	866
782.147	852
783.846	864
785.544	858
787.24	860
788.938	836
790.635	838
792.33	818
794.027	824
795.723	828
797.417	856
799.113	830
800.808	814
802.501	776
804.196	812
805.89	790
807.582	758
809.276	798
810.968	782
812.661	780
814.354	766
816.044	766
817.736	732
819.426	722
821.118	724
822.807	722
824.498	696
826.186	674
827.877	688
829.565	692
831.254	666
832.942	658
834.631	630
836.317	652
838.006	646
839.692	624
841.38	610
843.065	626
844.752	606
846.437	608
848.123	606
849.808	620
851.493	632
853.177	590
854.86	636
856.545	584
858.228	568
859.912	642
861.594	588
863.276	604
864.959	620
866.64	596
868.321	602
870.003	584
871.683	590
873.363	588
875.044	568
876.723	594
878.402	640
880.083	612
881.761	618
883.439	622
885.116	610
886.795	606
888.472	638
890.149	632
891.825	602
893.503	620
895.179	628
896.854	630
898.529	650
900.204	648
901.88	626
903.555	654
905.228	678
906.902	658
908.575	660
910.25	668
911.922	698
913.595	686
915.266	710
916.938	720
918.609	716
920.28	722
921.951	742
923.623	762
925.293	762
926.963	772
928.633	830
930.302	806
931.97	786
933.639	840
935.307	860
936.975	842
938.642	886
940.31	860
941.977	882
943.643	884
945.31	872
946.976	918
948.641	890
950.307	914
951.972	952
953.636	916
955.301	924
956.965	936
958.629	946
960.292	924
961.955	898
963.618	910
965.279	894
966.941	932
968.603	894
970.265	914
971.926	884
973.587	944
975.248	902
976.908	930
978.566	974
980.226	946
981.886	958
983.545	960
985.204	992
986.86	978
988.519	1012
990.177	1028
991.834	1000
993.491	1012
995.147	1002
996.803	1024
998.46	1032
1000.12	1022
1001.77	1022
1003.43	1056
1005.08	1040
1006.73	1062
1008.39	1046
1010.04	1076
1011.7	1070
1013.35	1102
1015	1132
1016.65	1140
1018.3	1138
1019.96	1154
1021.61	1138
1023.26	1196
1024.91	1192
1026.56	1204
1028.21	1212
1029.86	1244
1031.51	1236
1033.16	1256
1034.81	1280
1036.46	1308
1038.1	1350
1039.75	1372
1041.4	1414
1043.05	1380
1044.69	1432
1046.34	1418
1047.99	1458
1049.63	1504
1051.28	1530
1052.92	1512
1054.57	1576
1056.21	1532
1057.86	1606
1059.5	1602
1061.14	1662
1062.79	1690
1064.43	1684
1066.07	1744
1067.72	1762
1069.36	1788
1071	1798
1072.64	1828
1074.28	1860
1075.92	1892
1077.57	1914
1079.2	1924
1080.84	1940
1082.48	1982
1084.12	2000
1085.76	2028
1087.4	2002
1089.04	2038
1090.68	2004
1092.32	2064
1093.95	2072
1095.59	2070
1097.22	2118
1098.86	2058
1100.5	2004
1102.13	2020
1103.77	1936
1105.4	1954
1107.04	1946
1108.67	1918
1110.31	1896
1111.94	1858
1113.58	1798
1115.21	1766
1116.84	1718
1118.47	1684
1120.1	1636
1121.74	1630
1123.37	1574
1125	1598
1126.63	1526
1128.26	1534
1129.89	1420
1131.52	1434
1133.15	1424
1134.78	1366
1136.41	1338
1138.04	1314
1139.67	1320
1141.3	1234
1142.92	1222
1144.55	1162
1146.18	1178
1147.8	1210
1149.43	1158
1151.06	1106
1152.68	1092
1154.31	1104
1155.93	1068
1157.56	1030
1159.18	1000
1160.81	1022
1162.43	1008
1164.06	1000
1165.68	972
1167.3	958
1168.93	936
1170.55	918
1172.17	904
1173.79	894
1175.41	894
1177.03	880
1178.66	852
1180.28	846
1181.9	826
1183.52	788
1185.14	784
1186.75	782
1188.37	776
1189.99	756
1191.61	776
1193.23	726
1194.85	708
1196.46	738
1198.08	700
1199.7	710
1201.31	666
1202.93	680
1204.55	654
1206.16	656
1207.78	664
1209.39	648
1211.01	600
1212.62	644
1214.24	622
1215.85	616
1217.46	612
1219.08	594
1220.69	608
1222.3	558
1223.91	582
1225.53	552
1227.14	556
1228.75	584
1230.36	552
1231.97	560
1233.58	542
1235.19	584
1236.8	596
1238.41	542
1240.02	534
1241.63	568
1243.23	550
1244.84	562
1246.45	542
1248.06	532
1249.67	580
1251.27	548
1252.88	544
1254.48	546
1256.09	560
1257.7	520
1259.3	500
1260.91	558
1262.51	540
1264.12	536
1265.72	556
1267.32	532
1268.93	544
1270.53	550
1272.13	552
1273.73	554
1275.34	556
1276.94	538
1278.54	550
1280.14	532
1281.74	530
1283.35	552
1284.94	568
1286.54	558
1288.15	561
1289.74	564
1291.34	564
1292.94	550
1294.54	552
1296.14	572
1297.74	540
1299.33	556
1300.93	556
1302.53	544
1304.12	560
1305.72	540
1307.32	570
1308.91	572
1310.51	556
1312.1	568
1313.7	596
1315.29	568
1316.89	562
1318.48	580
1320.07	578
1321.67	582
1323.26	582
1324.85	538
1326.45	596
1328.04	610
1329.63	620
1331.22	616
1332.81	582
1334.4	614
1335.99	624
1337.58	622
1339.17	594
1340.77	642
1342.35	630
1343.94	626
1345.53	630
1347.12	586
1348.71	610
1350.3	580
1351.88	612
1353.47	622
1355.06	612
1356.64	636
1358.23	602
1359.82	586
1361.4	590
1362.99	580
1364.57	584
1366.16	614
1367.74	594
1369.33	574
1370.91	554
1372.49	586
1374.08	580
1375.66	586
1377.24	568
1378.82	570
1380.41	582
1381.99	552
1383.57	572
1385.15	556
1386.73	552
1388.31	552
1389.89	586
1391.47	576
1393.05	562
1394.63	544
1396.21	538
1397.79	554
1399.37	550
1400.95	566
1402.52	572
1404.1	564
1405.68	550
1407.25	524
1408.83	558
1410.41	554
1411.98	544
1413.56	558
1415.13	534
1416.71	564
1418.29	542
1419.86	558
1421.43	568
1423.01	542
1424.58	562
1426.15	572
1427.73	554
1429.3	556
1430.87	538
1432.44	544
1434.02	540
1435.59	546
1437.16	526
1438.73	560
1440.3	500
1441.87	540
1443.44	570
1445.01	544
1446.58	578
1448.15	554
1449.72	534
1451.29	526
1452.85	514
1454.42	576
1455.99	550
1457.56	554
1459.12	534
1460.69	544
1462.26	556
1463.82	560
1465.39	540
1466.95	536
1468.52	542
1470.08	562
1471.65	544
1473.21	542
1474.78	562
1476.34	546
1477.9	562
1479.47	560
1481.03	570
1482.59	528
1484.16	574
1485.72	552
1487.28	542
1488.84	540
1490.4	562
1491.96	544
1493.52	546
1495.08	584
1496.64	584
1498.2	566
1499.76	564
1501.32	582
1502.88	562
1504.44	586
1506	574
1507.55	536
1509.11	580
1510.67	560
1512.22	568
1513.78	550
1515.34	550
1516.89	576
1518.45	568
1520.01	596
1521.56	576
1523.11	566
1524.67	572
1526.22	580
1527.78	560
1529.33	556
1530.88	584
1532.44	594
1533.99	572
1535.54	570
1537.09	568
1538.65	602
1540.2	572
1541.75	572
1543.3	582
1544.85	584
1546.4	598
1547.95	588
1549.5	572
1551.05	570
1552.6	610
1554.15	594
1555.7	630
1557.25	604
1558.79	590
1560.34	610
1561.89	570
1563.43	582
1564.98	588
1566.53	592
1568.08	606
1569.62	600
1571.17	608
1572.71	602
1574.26	600
1575.8	604
1577.35	602
1578.89	634
1580.43	612
1581.98	612
1583.52	610
1585.06	634
1586.61	640
1588.15	646
1589.69	612
1591.23	592
1592.77	632
1594.32	600
1595.86	600
1597.4	600
1598.94	594
1600.48	618
1602.02	598
1603.56	602
1605.1	632
1606.64	615.469
1608.18	582.923
1609.71	585.988
1611.25	581.384
1612.79	616.671
1614.33	573.41
1615.86	561.19
1617.4	586.029
1618.94	585.209
1620.47	573.967
1622.01	570.025
1623.55	586.639
1625.08	560.421
1626.62	557.007
1628.15	584.884
1629.69	579.761
1631.22	548.626
1632.75	556.504
1634.29	561.382
1635.82	563.284
1637.35	540.293
1638.89	544.461
1640.42	554.018
1641.95	554.221
1643.48	530.857
1645.02	535.07
1646.55	547.815
1648.08	537.745
1649.61	532.841
1651.14	547.744
1652.67	528.752
1654.2	538.539
1655.73	534.099
1657.26	538.178
1658.79	528.613
1660.32	537.776
1661.84	541.038
1663.37	539.345
1664.9	538.793
1666.43	529.856
1667.96	535.009
1669.48	547.821
1671.01	540.105
1672.54	519.343
1674.06	524.514
1675.59	504.501
1677.11	512.181
1678.64	524.882
1680.16	522.199
1681.69	521.578
1683.21	527.698
1684.74	519.095
1686.26	521.542
1687.79	512.69
1689.31	509.469
1690.83	529.125
1692.35	524.865
1693.88	519.341
1695.4	532.838
1696.92	523.066
1698.44	530.246
1699.96	510.496
1701.48	516.002
1703.01	527.878
1704.53	517.915
1706.05	516.431
1707.57	517.743
1709.09	520.625
1710.6	503.662
1712.12	532.67
1713.64	521.711
1715.16	535.314
1716.68	524.612
1718.2	526.324
1719.71	522.391
1721.23	510.984
1722.75	494.564
1724.27	511.259
1725.78	492.633
1727.3	524.231
1728.81	511.181
1730.33	521.175
1731.84	508.673
1733.36	495.082
1734.88	516.792
1736.39	492.21
1737.9	492.307
1739.42	509.103
1740.93	497.381
1742.44	504.365
1743.96	489.905
1745.47	491.507
1746.98	486.772
1748.49	479.162
1750.01	488.322
1751.52	493.183
1753.03	485.865
1754.54	497.988
1756.05	506.382
1757.56	481.627
1757.63	480
1759.14	496
1760.66	480
1762.18	468
1763.69	474
1765.21	494
1766.72	490
1768.24	482
1769.75	476
1771.27	500
1772.78	480
1774.3	474
1775.81	504
1777.32	474
1778.84	504
1780.35	486
1781.86	488
1783.38	508
1784.89	492
1786.4	510
1787.91	502
1789.42	492
1790.93	516
1792.44	494
1793.95	504
1795.47	496
1796.98	476
1798.48	492
1799.99	488
1801.5	512
1803.01	500
1804.52	504
1806.03	488
1807.54	500
1809.04	490
1810.55	498
1812.06	490
1813.57	472
1815.07	508
1816.58	484
1818.08	478
1819.59	498
1821.09	508
1822.6	480
1824.11	488
1825.61	498
1827.11	506
1828.62	488
1830.12	510
1831.63	508
1833.13	468
1834.63	496
1836.13	480
1837.64	514
1839.14	498
1840.64	494
1842.14	464
1843.64	494
1845.14	510
1846.64	502
1848.14	514
1849.64	468
1851.14	492
1852.64	500
1854.14	492
1855.64	510
1857.14	492
1858.64	496
1860.14	490
1861.64	504
1863.13	488
1864.63	462
1866.13	486
1867.63	502
1869.12	480
1870.62	508
1872.11	498
1873.61	494
1875.1	492
1876.6	524
1878.09	506
1879.59	514
1881.08	508
1882.58	482
1884.07	492
1885.56	516
1887.06	492
1888.55	506
1890.04	504
1891.54	486
1893.03	490
1894.52	496
1896.01	506
1897.5	492
1898.99	506
1900.48	524
1901.97	500
1903.46	498
1904.96	528
1906.44	498
1907.93	498
1909.42	516
1910.91	512
1912.4	500
1913.89	504
1915.38	500
1916.86	512
1918.35	528
1919.84	502
1921.32	496
1922.81	498
1924.3	540
1925.78	526
1927.27	506
1928.76	490
1930.24	520
1931.72	506
1933.21	522
1934.69	490
1936.18	512
1937.66	496
1939.15	510
1940.63	500
1942.11	514
1943.59	500
1945.08	510
1946.56	502
1948.04	504
1949.52	510
1951	496
1952.48	498
1953.97	522
1955.45	504
1956.93	492
1958.41	514
1959.89	506
1961.37	512
1962.85	516
1964.32	530
1965.8	512
1967.28	524
1968.76	478
1970.24	494
1971.71	476
1973.19	488
1974.67	502
1976.15	518
1977.62	510
1979.1	502
1980.57	508
1982.05	516
1983.53	522
1985	484
1986.48	490
1987.95	498
1989.42	480
1990.9	496
1992.37	506
1993.85	508
1995.32	476
1996.79	508
1998.26	502
1999.74	502
2001.21	508
2002.68	492
2004.15	508
2005.62	500
2007.09	502
2008.56	526
2010.03	496
2011.51	520
2012.98	520
2014.44	518
2015.92	508
2017.38	496
2018.85	514
2020.32	508
2021.79	510
2023.26	508
2024.73	504
2026.19	502
2027.66	528
2029.13	522
2030.59	504
2032.06	518
2033.53	524
2034.99	524
2036.46	524
2037.92	528
2039.39	506
2040.85	510
2042.32	520
2043.78	514
2045.25	530
2046.71	526
2048.17	530
2049.64	514
2051.1	520
2052.56	526
2054.02	534
2055.49	532
2056.95	530
2058.41	518
2059.87	534
2061.33	530
2062.79	530
2064.25	532
2065.71	518
2067.17	532
2068.63	518
2070.09	516
2071.55	524
2073.01	500
2074.47	516
2075.93	548
2077.39	542
2078.84	528
2080.3	514
2081.76	548
2083.22	524
2084.67	496
2086.13	502
2087.59	534
2089.04	520
2090.5	498
2091.95	498
2093.41	502
2094.86	512
2096.32	510
2097.77	510
2099.23	516
2100.68	504
2102.13	518
2103.59	538
2105.04	536
2106.49	510
2107.95	522
2109.4	530
2110.85	532
2112.3	508
2113.75	530
2115.21	522
2116.66	522
2118.11	526
2119.56	528
2121.01	530
2122.46	526
2123.91	520
2125.36	534
2126.8	532
2128.25	524
2129.7	526
2131.15	540
2132.6	518
2134.05	498
2135.49	524
2136.94	558
2138.39	508
2139.83	512
2141.28	498
2142.73	520
2144.17	540
2145.62	520
2147.06	544
2148.51	540
2149.95	544
2151.4	530
2152.84	522
2154.29	522
2155.73	526
2157.17	524
2158.62	530
2160.06	538
2161.5	522
2162.95	536
2164.39	552
2165.83	528
2167.27	524
2168.71	520
2170.15	508
2171.59	500
2173.04	526
2174.48	526
2175.92	532
2177.36	526
2178.79	530
2180.24	558
2181.67	532
2183.11	522
2184.55	518
2185.99	508
2187.43	526
2188.86	532
2190.3	522
2191.74	526
2193.18	522
2194.61	524
2196.05	558
2197.49	528
2198.92	540
2200.36	516
2201.79	548
2203.23	544
2204.66	528
2206.1	530
2207.53	500
2208.97	516
2210.4	528
2211.83	540
2213.27	520
2214.7	520
2216.13	528
2217.57	518
2219	498
2220.43	472
2221.86	518
2223.29	524
2224.72	496
2226.15	508
2227.59	528
2229.02	520
2230.45	516
2231.88	498
2233.31	522
2234.74	496
2236.16	508
2237.59	500
2239.02	518
2240.45	500
2241.88	534
2243.31	510
2244.73	498
2246.16	488
2247.59	532
2249.01	536
2250.44	536
2251.87	502
2253.29	488
2254.72	494
2256.15	534
2257.57	516
2259	514
2260.42	524
2261.84	512
2263.27	548
2264.69	514
2266.12	536
2267.54	504
2268.96	528
2270.39	528
2271.81	488
2273.23	528
2274.65	536
2276.07	536
2277.5	510
2278.92	544
2280.34	508
2281.76	526
2283.18	522
2284.6	528
2286.02	556
2287.44	528
2288.86	516
2290.28	532
2291.7	554
2293.12	540
2294.54	538
2295.95	548
2297.37	522
2298.79	532
2300.21	532
2301.62	546
2303.04	542
2304.46	538
2305.88	544
2307.29	562
2308.71	540
2310.12	534
2311.54	544
2312.95	552
2314.37	570
2315.78	556
2317.2	554
2318.61	576
2320.02	544
2321.44	556
2322.85	584
2324.27	576
2325.68	596
2327.09	616
2328.5	620
2329.92	622
2331.33	582
2332.74	588
2334.15	568
2335.56	596
2336.97	590
2338.38	548
2339.79	582
2341.2	606
2342.61	572
2344.02	588
2345.43	592
2346.84	600
2348.25	606
2349.66	602
2351.07	610
2352.48	596
2353.88	598
2355.29	612
2356.7	610
2358.11	618
2359.51	608
2360.92	618
2362.32	626
2363.73	628
2365.14	638
2366.54	650
2367.95	646
2369.35	602
2370.76	642
2372.16	650
2373.57	610
2374.97	644
2376.37	640
2377.78	658
2379.18	666
2380.58	630
2381.99	658
2383.39	682
2384.79	646
2386.19	672
2387.59	690
2389	676
2390.4	666
2391.8	688
2393.2	676
2394.6	668
2396	678
2397.4	650
2398.8	652
2400.2	694
2401.6	656
2403	668
2404.39	680
2405.79	706
2407.19	666
2408.59	706
2409.99	682
2411.38	704
2412.78	680
2414.18	674
2415.57	692
2416.97	676
2418.37	704
2419.76	692
2421.16	704
2422.55	688
2423.95	696
2425.34	706
2426.74	700
2428.13	712
2429.53	682
2430.92	718
2432.31	712
2433.71	696
2435.1	686
2436.49	738
2437.89	692
2439.28	706
2440.67	712
2442.06	720
2443.45	718
2444.85	708
2446.24	702
2447.63	712
2449.02	680
2450.41	716
2451.8	680
2453.19	694
2454.58	688
2455.97	704
2457.36	708
2458.75	714
2460.13	692
2461.52	714
2462.91	714
2464.3	702
2465.69	702
2467.07	700
2468.46	680
2469.85	714
2471.24	688
2472.62	704
2474.01	676
2475.39	676
2476.78	690
2478.16	698
2479.55	702
2480.94	692
2482.32	682
2483.7	698
2485.09	706
2486.47	694
2487.85	694
2489.24	678
2490.62	692
2492	706
2493.39	682
2494.77	668
2496.15	676
2497.53	722
2498.92	724
2500.3	712
2501.68	720
2503.06	710
2504.44	664
2505.82	692
2507.2	690
2508.58	684
2509.96	688
2511.34	706
2512.72	692
2514.1	702
2515.48	702
2516.85	700
2518.23	708
2519.61	718
2520.99	710
2522.37	722
2523.74	706
2525.12	702
2526.5	690
2527.87	702
2529.25	694
2530.63	716
2532	682
2533.38	736
2534.75	688
2536.13	724
2537.5	700
2538.88	704
2540.25	678
2541.62	704
2543	722
2544.37	702
2545.75	704
2547.12	700
2548.49	696
2549.86	698
2551.24	720
2552.61	708
2553.98	690
2555.35	714
2556.72	718
2558.09	690
2559.47	704
2560.84	704
2562.21	696
2563.57	692
2564.95	710
2566.32	694
2567.68	710
2569.05	718
2570.42	740
2571.79	734
2573.16	728
2574.53	714
2575.9	730
2577.26	686
2578.63	692
2580	678
2581.36	704
2582.73	700
2584.1	668
2585.46	712
2586.83	708
2588.19	710
2589.56	714
2590.93	740
2592.29	704
2593.66	726
2595.02	704
2596.39	702
2597.75	736
2599.11	716
2600.47	718
2601.84	696
2603.2	728
2604.56	698
2605.93	714
2607.29	702
2608.65	712
2610.01	710
2611.38	714
2612.74	722
2614.1	742
2615.46	710
2616.82	722
2618.18	742
2619.54	732
2620.9	706
2622.26	704
2623.62	704
2624.98	744
2626.34	734
2627.69	738
2629.05	712
2630.41	726
2631.77	724
2633.13	716
2634.48	760
2635.84	742
2637.2	742
2638.56	730
2639.91	746
2641.27	744
2642.62	778
2643.98	746
2645.33	748
2646.69	738
2648.05	754
2649.4	767
2650.75	768
2652.11	740
2653.46	764
2654.82	750
2656.17	764
2657.52	764
2658.88	750
2660.23	750
2661.58	750
2662.94	744
2664.29	764
2665.64	724
2666.99	748
2668.34	760
2669.69	774
2671.04	776
2672.39	766
2673.75	756
2675.09	734
2676.45	758
2677.79	772
2679.14	740
2680.49	764
2681.84	766
2683.19	756
2684.54	770
2685.89	770
2687.24	730
2688.58	748
2689.93	720
2691.28	762
2692.63	754
2693.97	738
2695.32	750
2696.67	764
2698.01	762
2699.36	772
2700.7	770
2702.05	766
2703.39	744
2704.74	734
2706.08	740
2707.43	754
2708.77	778
2710.12	744
2711.46	772
2712.8	762
2714.15	736
2715.49	774
2716.83	758
2718.17	770
2719.52	774
2720.86	766
2722.2	758
2723.54	776
2724.88	774
2726.22	750
2727.57	780
2728.91	790
2730.25	760
2731.59	788
2732.93	758
2734.27	768
2735.61	798
2736.95	772
2738.28	770
2739.62	764
2740.96	748
2742.3	796
2743.64	792
2744.98	778
2746.31	790
2747.65	738
2748.99	762
2750.33	760
2751.66	806
2753	812
2754.33	788
2755.67	786
2757.01	788
2758.34	812
2759.68	800
2761.01	784
2762.35	784
2763.68	806
2765.01	806
2766.35	836
2767.68	818
2769.02	808
2770.35	826
2771.68	828
2773.02	830
2774.35	810
2775.68	804
2777.01	794
2778.35	798
2779.68	788
2781.01	818
2782.34	802
2783.67	804
2785	780
2786.33	812
2787.66	820
2788.99	818
2790.32	808
2791.65	820
2792.98	840
2794.31	832
2795.64	818
2796.97	806
2798.3	824
2799.62	822
2800.95	836
2802.28	806
2803.61	850
2804.93	814
2806.26	788
2807.59	824
2808.91	844
2810.24	820
2811.57	852
2812.89	856
2814.22	824
2815.54	826
2816.87	836
2818.19	852
2819.52	830
2820.84	814
2822.17	844
2823.49	830
2824.81	868
2826.14	840
2827.46	856
2828.78	850
2830.11	848
2831.43	856
2832.75	852
2834.07	860
2835.39	826
2836.72	866
2838.04	846
2839.36	880
2840.68	868
2842	850
2843.32	856
2844.64	866
2845.96	898
2847.28	886
2848.6	892
2849.92	860
2851.24	860
2852.56	882
2853.88	876
2855.19	870
2856.51	848
2857.83	908
2859.15	890
2860.46	884
2861.78	896
2863.1	918
2864.42	884
2865.73	886
2867.05	918
2868.36	890
2869.68	874
2871	856
2872.31	930
2873.63	918
2874.94	872
2876.26	898
2877.57	916
2878.88	910
2880.2	906
2881.51	906
2882.82	898
2884.14	922
2885.45	910
2886.76	894
2888.08	908
2889.39	902
2890.7	912
2892.01	902
2893.33	930
2894.64	868
2895.95	920
2897.26	900
2898.57	940
2899.88	902
2901.19	924
2902.5	924
2903.81	924
2905.12	936
2906.43	944
2907.74	930
2909.05	926
2910.35	904
2911.66	930
2912.97	934
2914.28	950
2915.59	942
2916.89	942
2918.2	902.17
2919.51	967.372
2920.82	923.82
2922.12	963.524
2923.43	968.315
2924.73	936.931
2926.04	937.598
2927.35	931.633
2928.65	943.42
2929.96	928.426
2931.26	936.576
2932.57	966.098
2933.87	952.331
2935.17	954.769
2936.48	949.738
2937.78	969.016
2939.09	928.28
2940.39	944.693
2941.69	948.043
2943	987.075
2944.3	964.206
2945.6	954.966
2946.9	989.794
2948.2	951.64
2949.51	941.402
2950.81	975.029
2952.11	951.514
2953.41	974.835
2954.71	939.695
2956.01	964.727
2957.31	969.97
2958.61	999.858
2959.91	962.598
2961.21	962.577
2962.51	975.901
2963.81	969.47
2965.11	963.044
2966.41	980.617
2967.71	975.67
2969.01	981.616
2970.3	987.042
2971.6	971.305
2972.9	983.882
2974.2	984.275
2975.49	995.257
2976.79	996.554
2978.09	990.84
2979.39	982.62
2980.68	985.61
2981.98	989.012
2983.27	976.297
2984.57	991.552
2985.86	1006.05
2987.16	991.983
2988.45	1002.66
2989.75	1001.8
2991.04	993.972
2992.34	1030.73
2993.63	1025.94
2994.93	1010.09
2996.22	1008.3
2997.51	990.709
2998.81	1022.7
3000.1	1033.29
3001.39	1037.42
3002.68	1024.29
3003.98	1029.84
3005.27	1038.36
3006.56	1042.48
3007.85	1019.45
3009.14	1034.97
3010.43	1022.88
3011.72	1021.5
3013.01	1035.1
3014.31	1045.58
3015.59	1040
3016.89	1031.13
3018.18	1025.25
3019.47	1030.79
3020.75	1021.43
3022.04	1051
3023.33	1048.27
3024.62	1046.29
3025.91	1039.9
3027.2	1071.78
3028.48	1082.91
3029.77	1063.14
3031.06	1072.87
3032.35	1060.5
3033.64	1062.48
3034.92	1067.87
3036.21	1077.47
3037.5	1059.81
3038.78	1049.13
3040.07	1063.06
3041.35	1073.9
3042.64	1072.92
3043.92	1076.17
3045.21	1096.38
3046.49	1091.56
3047.78	1067.09
3048.11	1060
3049.4	1084
3050.69	1070
3051.98	1096
3053.27	1106
3054.56	1090
3055.85	1088
3057.14	1094
3058.43	1074
3059.72	1118
3061.01	1090
3062.29	1090
3063.58	1094
3064.87	1134
3066.16	1060
3067.44	1088
3068.73	1110
3070.02	1086
3071.31	1124
3072.59	1122
3073.88	1122
3075.16	1092
3076.45	1134
3077.73	1118
3079.02	1136
3080.31	1104
3081.59	1106
3082.87	1110
3084.16	1090
3085.44	1132
3086.73	1152
3088.01	1154
3089.29	1100
3090.58	1140
3091.86	1148
3093.14	1120
3094.43	1156
3095.71	1148
3096.99	1132
3098.27	1156
3099.55	1166
3100.84	1154
3102.12	1138
3103.4	1178
3104.68	1118
3105.96	1172
3107.24	1180
3108.52	1154
3109.8	1158
3111.08	1148
3112.36	1142
3113.64	1152
3114.92	1160
3116.2	1150
3117.48	1186
3118.75	1188
3120.03	1182
3121.31	1190
3122.59	1186
3123.87	1198
3125.14	1170
3126.42	1210
3127.7	1198
3128.97	1222
3130.25	1192
3131.53	1206
3132.8	1202
3134.08	1244
3135.35	1200
3136.63	1212
3137.9	1200
3139.18	1228
3140.45	1204
3141.73	1206
3143	1208
3144.28	1222
3145.55	1258
3146.82	1252
3148.1	1226
3149.37	1186
3150.64	1254
3151.92	1250
3153.19	1270
3154.46	1264
3155.73	1216
3157.01	1254
3158.28	1212
3159.55	1244
3160.82	1266
3162.09	1248
3163.36	1266
3164.63	1244
3165.9	1250
3167.17	1264
3168.44	1286
3169.71	1288
3170.98	1216
3172.25	1262
3173.52	1262
3174.79	1266
3176.06	1268
3177.32	1282
3178.59	1250
3179.86	1270
3181.13	1258
3182.4	1308
3183.66	1298
3184.93	1272
3186.2	1284
3187.46	1248
3188.73	1290
3190	1320
3191.26	1310
3192.53	1292
3193.79	1266
3195.06	1272
3196.32	1290
3197.59	1254
3198.85	1276
3200.12	1310
3201.38	1300
3202.65	1300
3203.91	1286
3205.17	1320
3206.44	1292
3207.7	1352
3208.96	1298
3210.23	1336
3211.49	1312
3212.75	1302
3214.01	1356
3215.27	1356
3216.54	1304
3217.8	1312
3219.06	1366
3220.32	1360
3221.58	1352
3222.84	1322
3224.1	1348
3225.36	1342
3226.62	1330
3227.88	1362
3229.14	1314
3230.4	1282
3231.66	1306
3232.92	1360
3234.18	1334
3235.44	1352
3236.69	1336
3237.95	1360
3239.21	1354
3240.47	1398
3241.72	1334
3242.98	1342
3244.24	1350
3245.5	1366
3246.75	1322
3248.01	1378
3249.26	1384
3250.52	1376
3251.78	1396
3253.03	1310
3254.29	1338
3255.54	1370
3256.8	1402
3258.05	1334
3259.3	1372
3260.56	1388
3261.81	1378
3263.07	1404
3264.32	1384
3265.57	1428
3266.83	1396
3268.08	1390
3269.33	1456
3270.58	1438
3271.84	1384
3273.09	1390
3274.34	1436
3275.59	1384
3276.84	1434
3278.09	1400
3279.35	1432
3280.6	1482
3281.85	1452
3283.1	1456
3284.35	1424
3285.6	1430
3286.85	1446
3288.1	1456
3289.35	1446
3290.59	1464
3291.84	1472
3293.09	1456
3294.34	1462
3295.59	1472
3296.84	1444
3298.08	1442
3299.33	1462
3300.58	1498
3301.83	1466
3303.07	1456
3304.32	1502
3305.57	1468
3306.81	1486
3308.06	1512
3309.3	1488
3310.55	1512
3311.79	1504
3313.04	1508
3314.29	1510
3315.53	1506
3316.77	1470
3318.02	1518
3319.26	1524
3320.51	1468
3321.75	1522
3322.99	1502
3324.24	1534
3325.48	1514
3326.72	1556
3327.97	1512
3329.21	1502
3330.45	1522
3331.69	1518
3332.93	1542
3334.18	1482
3335.42	1558
3336.66	1512
3337.9	1552
3339.14	1558
3340.38	1548
3341.62	1538
3342.86	1596
3344.1	1532
3345.34	1546
3346.58	1540
3347.82	1546
3349.06	1524
3350.3	1552
3351.54	1552
3352.77	1584
3354.01	1540
3355.25	1576
3356.49	1544
3357.73	1570
3358.96	1614
3360.2	1554
3361.44	1556
3362.67	1568
3363.91	1566
3365.15	1550
3366.38	1580
3367.62	1564
3368.85	1586
3370.09	1578
3371.33	1572
3372.56	1582
3373.8	1584
3375.03	1596
3376.26	1576
3377.5	1572
3378.73	1586
3379.97	1624
3381.2	1606
3382.43	1590
3383.67	1606
3384.9	1584
3386.13	1654
3387.37	1590
3388.6	1644
3389.83	1602
3391.06	1632
3392.29	1602
3393.52	1594
3394.76	1656
3395.99	1596
3397.22	1642
3398.45	1590
3399.68	1614
3400.91	1652
3402.14	1652
3403.37	1660
3404.6	1670
3405.83	1636
3407.06	1654
3408.29	1620
3409.51	1620
3410.74	1620
3411.97	1660
3413.2	1678
3414.43	1612
3415.66	1632
3416.88	1692
3418.11	1652
3419.34	1670
3420.56	1660
3421.79	1652
3423.02	1660
3424.24	1680
3425.47	1672
3426.7	1656
3427.92	1688
3429.15	1712
3430.37	1694
3431.6	1678
3432.82	1672
3434.05	1712
3435.27	1708
3436.5	1634
3437.72	1678
3438.94	1758
3440.17	1700
3441.39	1738
3442.61	1748
3443.84	1780
3445.06	1758
3446.28	1764
3447.51	1736
3448.73	1758
3449.95	1732
3451.17	1740
3452.39	1774
3453.61	1784
3454.83	1792
3456.06	1754
3457.28	1768
3458.5	1760
3459.72	1782
3460.94	1780
3462.16	1798
3463.38	1764
3464.6	1814
3465.82	1786
3467.04	1790
3468.25	1720
3469.47	1784
3470.69	1808
3471.91	1776
3473.13	1828
3474.34	1790
3475.56	1838
3476.78	1800
3478	1776
3479.21	1784
3480.43	1810
3481.65	1790
3482.86	1802
3484.08	1822
3485.3	1798
3486.51	1818
3487.73	1822
3488.94	1806
3490.16	1830
3491.37	1770
3492.59	1796
3493.8	1812
3495.02	1798
3496.23	1812
3497.45	1820
3498.66	1790
3499.87	1818
3501.09	1820
3502.3	1830
3503.51	1842
3504.72	1814
3505.94	1828
3507.15	1870
3508.36	1854
3509.57	1788
3510.79	1858
3512	1806
3513.21	1842
3514.42	1802
3515.63	1812
3516.84	1834
3518.05	1876
3519.26	1850
3520.47	1846
3521.68	1832
3522.89	1874
3524.1	1840
3525.31	1854
3526.52	1840
3527.73	1774
3528.94	1824
3530.14	1832
3531.35	1854
3532.56	1858
3533.77	1858
3534.98	1866
3536.18	1864
3537.39	1852
3538.6	1814
3539.81	1860
3541.01	1890
3542.22	1848
3543.42	1846
3544.63	1890
3545.84	1878
3547.04	1848
3548.25	1864
3549.45	1874
3550.66	1866
3551.86	1848
3553.07	1904
3554.27	1900
3555.47	1878
3556.68	1904
3557.88	1894
3559.09	1900
3560.29	1920
3561.49	1902
3562.7	1888
3563.9	1870
3565.1	1892
3566.3	1920
3567.51	1928
3568.71	1942
3569.91	1918
3571.11	1916
3572.31	1948
3573.51	1950
3574.71	1940
3575.92	1900
3577.12	1914
3578.32	1980
3579.52	1962
3580.72	1940
3581.92	1980
3583.12	1912
3584.31	1964
3585.51	1976
3586.71	1994
3587.91	1994
3589.11	2026
3590.31	1962
3591.51	2004
3592.71	1992
3593.9	2008
3595.1	2022
3596.3	2014
3597.49	1992
3598.69	2004
3599.89	2044
3601.08	2010
3602.28	1986
3603.48	2032
3604.67	2022
3605.87	1974
3607.06	2054
3608.26	2034
3609.45	2046
3610.65	2052
3611.84	2046
3613.04	2042
3614.23	2040
3615.43	2052
3616.62	2078
3617.82	1998
3619.01	2072
3620.2	2104
3621.39	2036
3622.59	2072
3623.78	2084
3624.97	2082
3626.17	2102
3627.36	2084
3628.55	2038
3629.74	2084
3630.93	2102
3632.12	2046
3633.31	2080
3634.51	2078
3635.7	2068
3636.89	2040
3638.08	2080
3639.27	2094
3640.46	2068
3641.65	2092
3642.84	2078
3644.03	2090
3645.22	2090
3646.4	2086
3647.59	2092
3648.78	2048
3649.97	2078
3651.16	2060
3652.35	2042
3653.53	2112
3654.72	2082
3655.91	2108
3657.1	2104
3658.28	2084
3659.47	2076
3660.66	2062
3661.84	2084
3663.03	2092
3664.21	2102
3665.4	2112
3666.59	2070
3667.77	2084
3668.96	2104
3670.14	2064
3671.33	2056
3672.51	2068
3673.69	2142
3674.88	2096
3676.06	2124
3677.25	2106
3678.43	2088
3679.61	2146
3680.8	2082
3681.98	2108
3683.16	2162
3684.34	2066
3685.53	2090
3686.71	2120
3687.89	2138
3689.07	2140
3690.25	2128
3691.44	2086
3692.62	2184
3693.8	2118
3694.98	2160
3696.16	2094
3697.34	2136
3698.52	2088
3699.7	2104
3700.88	2136
3702.06	2140
3703.24	2182
3704.42	2132
3705.6	2176
3706.78	2162
3707.96	2130
3709.13	2116
3710.31	2200
3711.49	2154
3712.67	2172
3713.85	2202
3715.02	2158
3716.2	2162
3717.38	2190
3718.56	2222
3719.73	2182
3720.91	2216
3722.08	2206
3723.26	2216
3724.44	2178
3725.61	2194
3726.79	2190
3727.96	2220
3729.14	2176
3730.31	2186
3731.49	2256
3732.66	2228
3733.84	2218
3735.01	2254
3736.18	2260
3737.36	2208
3738.53	2248
3739.7	2260
3740.88	2268
3742.05	2270
3743.22	2258
3744.4	2292
3745.57	2260
3746.74	2260
3747.91	2262
3749.09	2242
3750.26	2284
3751.43	2294
3752.6	2332
3753.77	2288
3754.94	2302
3756.11	2306
3757.28	2328
3758.45	2288
3759.62	2322
3760.79	2288
3761.96	2314
3763.13	2310
3764.3	2290
3765.47	2342
3766.64	2328
3767.81	2360
3768.98	2272
3770.14	2312
3771.31	2332
3772.48	2328
3773.65	2358
3774.82	2310
3775.98	2360
3777.15	2370
3778.32	2314
3779.48	2342
3780.65	2342
3781.82	2328
3782.98	2390
3784.15	2328
3785.32	2334
3786.48	2360
3787.65	2376
3788.81	2352
3789.98	2356
3791.14	2354
3792.3	2346
3793.47	2330
3794.63	2324
3795.8	2316
3796.96	2356
3798.13	2350
3799.29	2352
3800.45	2360
3801.61	2368
3802.78	2306
3803.94	2360
3805.1	2348
3806.27	2344
3807.43	2350
3808.59	2363
3809.75	2358
3810.91	2338
3812.07	2366
3813.24	2296
3814.4	2336
3815.56	2368
3816.72	2358
3817.88	2360
3819.04	2398
3820.2	2278
3821.36	2360
3822.52	2308
3823.68	2362
3824.84	2362
3826	2384
3827.15	2370
3828.31	2360
3829.47	2320
3830.63	2396
3831.79	2344
3832.95	2422
3834.1	2380
3835.26	2336
3836.42	2358
3837.58	2370
3838.73	2368
3839.89	2392
3841.04	2342
3842.2	2376
3843.36	2350
3844.51	2326
3845.67	2362
3846.83	2420
3847.98	2378
3849.14	2330
3850.29	2388
3851.45	2422
3852.6	2414
3853.76	2370
3854.91	2388
3856.06	2440
3857.22	2410
3858.37	2406
3859.52	2372
3860.68	2422
3861.83	2402
3862.98	2432
3864.14	2406
3865.29	2412
3866.44	2444
3867.59	2420
3868.75	2450
3869.9	2416
3871.05	2428
3872.2	2402
3873.35	2414
3874.5	2394
3875.65	2446
3876.8	2464
3877.95	2444
3879.1	2464
3880.25	2484
3881.4	2462
3882.55	2462
3883.7	2428
3884.85	2402
3886	2468
3887.15	2504
3888.3	2502
3889.45	2506
3890.6	2548
3891.75	2500
3892.89	2512
3894.04	2528
3895.19	2554
3896.34	2594
3897.48	2540
3898.63	2500
3899.78	2478
3900.92	2536
3902.07	2548
3903.22	2554
3904.36	2464
3905.51	2490
3906.65	2560
3907.8	2514
3908.94	2552
3910.09	2512
3911.23	2560
3912.38	2582
3913.52	2554
3914.67	2532
3915.81	2588
3916.96	2588
3918.1	2560
3919.24	2530
3920.39	2528
3921.53	2572
3922.67	2568
3923.82	2516
3924.96	2602
3926.1	2566
3927.24	2558
3928.39	2608
3929.53	2578
3930.67	2628
3931.81	2594
3932.95	2598
3934.09	2602
3935.24	2648
3936.38	2606
3937.52	2568
3938.66	2586
3939.8	2638
3940.94	2592
3942.08	2614
3943.22	2586
3944.36	2596
3945.5	2606
3946.63	2624
3947.77	2556
3948.91	2612
3950.05	2608
3951.19	2590
3952.33	2620
3953.47	2542
3954.6	2548
3955.74	2610
3956.88	2552
3958.02	2586
3959.15	2596
3960.29	2622
3961.43	2614
3962.56	2592
3963.7	2630
3964.84	2582
3965.97	2616
3967.11	2568
3968.24	2602
3969.38	2664
3970.51	2616
3971.65	2572
3972.78	2652
3973.92	2626
3975.05	2610
3976.19	2642
3977.32	2630
3978.45	2588
3979.59	2612
3980.72	2622
3981.85	2594
3982.99	2594
3984.12	2614
3985.25	2594
3986.39	2618
3987.52	2606
3988.65	2568
3989.78	2630
3990.91	2582
3992.05	2570
3993.18	2584
3994.31	2598
3995.44	2624
3996.57	2634
3997.7	2648
3998.83	2660
3999.96	2616
