#Acq. time (s)=	20
#Accumulations=	2
#Range (cm-¹)=	50...4000
#Windows=	3
#Autofocus=	Off
#AutoExposure=	Off
#Spike filter=	Multiple accum.
#Delay time (s)=	0
#Binning=	1
#Readout mode=	Signal
#DeNoise=	Off
#ICS correction=	Off
#Dark correction=	Off
#Inst. Process=	Off
#Instrument=	LabRAM HR Evol
#Detector=	Syncerity OE
#Objective=	x100_VIS
#Grating=	600 (500nm)
#ND Filter=	100%
#Laser=	532nm_Edge
#Hole=	100.021
#Range=	Visible
#Project=	Omar
#Sample=	
#Site=	21-09-22
#Title=	 CN-Sastre
#Remark=	
#Date=	21.09.2022 15:10
#Acquired=	21.09.2022 15:10:23
51.0918	40
52.9354	46
54.7807	52
56.6235	68
58.4681	110
60.3102	162
62.154	206
63.9954	260
65.8385	330
67.6792	380
69.5216	504
71.3615	604
73.2032	742
75.0424	858
76.8834	842
78.7218	932
80.5621	1062
82.3998	1138
84.2393	1212
86.0764	1202
87.9152	1256
89.7515	1304
91.5874	1284
93.4251	1310
95.2603	1284
97.0973	1312
98.9318	1316
100.766	1268
102.602	1336
104.435	1384
106.27	1388
108.103	1342
109.936	1320
111.77	1332
113.601	1326
115.433	1318
117.266	1342
119.096	1296
120.926	1316
122.758	1268
124.588	1266
126.417	1214
128.246	1270
130.076	1250
131.904	1242
133.732	1274
135.561	1270
137.388	1272
139.215	1258
141.041	1262
142.869	1248
144.695	1258
146.52	1244
148.345	1264
150.171	1312
151.995	1240
153.819	1250
155.642	1228
157.465	1270
159.29	1270
161.112	1228
162.934	1228
164.756	1230
166.577	1224
168.398	1226
170.219	1248
172.041	1208
173.861	1208
175.68	1212
177.499	1208
179.318	1178
181.137	1246
182.955	1242
184.772	1212
186.592	1218
188.409	1188
190.225	1218
192.042	1204
193.857	1224
195.673	1172
197.488	1222
199.303	1258
201.118	1182
202.932	1190
204.746	1214
206.559	1214
208.372	1174
210.185	1166
211.997	1216
213.809	1194
215.621	1230
217.432	1156
219.243	1196
221.054	1178
222.864	1168
224.674	1176
226.483	1178
228.293	1172
230.101	1180
231.91	1192
233.718	1194
235.524	1136
237.331	1156
239.138	1168
240.945	1200
242.751	1196
244.557	1164
246.363	1170
248.168	1156
249.971	1222
251.776	1220
253.58	1192
255.384	1174
257.188	1164
258.991	1178
260.792	1182
262.594	1194
264.396	1194
266.198	1200
268	1168
269.799	1220
271.599	1210
273.4	1164
275.2	1208
277	1162
278.797	1174
280.596	1150
282.395	1174
284.193	1172
285.989	1180
287.786	1210
289.584	1180
291.378	1192
293.175	1182
294.971	1190
296.765	1136
298.561	1164
300.356	1162
302.148	1214
303.943	1140
305.737	1158
307.529	1194
309.322	1180
311.115	1172
312.906	1146
314.698	1166
316.49	1194
318.28	1182
320.071	1180
321.86	1158
323.651	1164
325.441	1180
327.229	1178
329.019	1170
330.806	1180
332.595	1170
334.381	1164
336.17	1130
337.955	1168
339.743	1166
341.528	1154
343.315	1124
345.099	1190
346.885	1126
348.669	1148
350.455	1186
352.238	1148
354.022	1132
355.805	1156
357.589	1182
359.371	1164
361.154	1168
362.935	1152
364.718	1118
366.498	1204
368.278	1204
370.06	1152
371.839	1206
373.62	1188
375.398	1204
377.177	1174
378.956	1172
380.734	1210
382.513	1184
384.29	1174
386.067	1198
387.845	1184
389.621	1206
391.396	1164
393.173	1180
394.948	1186
396.723	1180
398.499	1214
400.273	1178
402.046	1200
403.819	1172
405.594	1158
407.366	1214
409.138	1228
410.91	1178
412.683	1208
414.454	1226
416.225	1174
417.995	1196
419.768	1184
421.537	1212
423.307	1224
425.076	1174
426.844	1218
428.615	1244
430.382	1210
432.15	1216
433.917	1210
435.684	1226
437.451	1216
439.219	1190
440.985	1192
442.751	1198
444.516	1214
446.281	1232
448.045	1222
449.81	1254
451.574	1232
453.337	1266
455.102	1240
456.865	1242
458.628	1248
460.39	1266
462.152	1230
463.913	1236
465.674	1226
467.435	1238
469.196	1220
470.956	1232
472.716	1210
474.475	1246
476.234	1208
477.993	1234
479.752	1252
481.51	1270
483.268	1260
485.025	1288
486.782	1206
488.539	1246
490.295	1208
492.051	1258
493.807	1260
495.563	1262
497.316	1224
499.07	1214
500.825	1256
502.579	1242
504.333	1186
506.086	1256
507.839	1202
509.592	1214
511.344	1208
513.094	1180
514.846	1234
516.597	1258
518.349	1242
520.099	1256
521.85	1252
523.598	1266
525.347	1280
527.097	1278
528.846	1260
530.595	1272
532.341	1288
534.089	1326
535.837	1312
537.584	1310
539.329	1290
541.076	1316
542.822	1322
544.568	1400
546.312	1390
548.057	1356
549.802	1410
551.545	1396
553.289	1346
555.033	1432
556.775	1398
558.518	1418
560.261	1396
562.002	1408
563.744	1436
565.487	1384
567.226	1388
568.968	1376
570.709	1366
572.447	1408
574.188	1368
575.926	1350
577.665	1384
579.405	1350
581.142	1358
582.88	1354
584.617	1338
586.355	1284
588.091	1358
589.828	1312
591.565	1314
593.3	1304
595.036	1322
596.77	1250
598.506	1286
600.239	1300
601.974	1298
603.707	1298
605.442	1234
607.174	1294
608.905	1270
610.639	1268
612.37	1286
614.103	1264
615.833	1290
617.565	1290
619.295	1286
621.026	1294
622.755	1300
624.484	1266
626.215	1324
627.943	1272
629.67	1268
631.4	1288
633.127	1262
634.856	1302
636.582	1286
638.308	1232
640.036	1260
641.762	1290
643.487	1208
645.214	1246
646.938	1260
648.662	1290
650.386	1254
652.112	1268
653.835	1264
655.558	1272
657.282	1276
659.005	1294
660.726	1252
662.448	1222
664.171	1254
665.892	1266
667.613	1272
669.333	1250
671.053	1272
672.774	1218
674.494	1250
676.213	1232
677.931	1264
679.649	1236
681.369	1226
683.087	1196
684.804	1300
686.521	1226
688.238	1234
689.954	1212
691.67	1192
693.386	1208
695.103	1236
696.818	1216
698.533	1210
700.247	1214
701.961	1218
703.675	1188
705.389	1224
707.102	1172
708.814	1186
710.527	1174
712.239	1196
713.951	1218
715.662	1196
717.373	1224
719.084	1212
720.795	1200
722.505	1202
724.215	1176
725.924	1206
727.633	1190
729.342	1214
731.051	1166
732.759	1186
734.467	1202
736.174	1200
737.882	1220
739.589	1206
741.295	1174
742.999	1202
744.705	1208
746.411	1210
748.116	1178
749.821	1202
751.526	1230
753.23	1214
754.934	1218
756.636	1200
758.34	1194
760.043	1212
761.745	1194
763.448	1216
765.148	1198
766.85	1174
768.551	1222
770.252	1240
771.953	1238
773.652	1230
775.352	1256
777.052	1266
778.751	1220
780.448	1240
782.147	1214
783.846	1228
785.544	1258
787.24	1204
788.938	1184
790.635	1226
792.33	1224
794.027	1246
795.723	1278
797.417	1226
799.113	1250
800.808	1252
802.501	1248
804.196	1222
805.89	1228
807.582	1234
809.276	1206
810.968	1192
812.661	1256
814.354	1254
816.044	1172
817.736	1198
819.426	1218
821.118	1236
822.807	1238
824.498	1204
826.186	1210
827.877	1186
829.565	1226
831.254	1212
832.942	1216
834.631	1256
836.317	1190
838.006	1244
839.692	1248
841.38	1246
843.065	1204
844.752	1244
846.437	1204
848.123	1230
849.808	1210
851.493	1218
853.177	1202
854.86	1218
856.545	1220
858.228	1218
859.912	1190
861.594	1252
863.276	1206
864.959	1200
866.64	1222
868.321	1244
870.003	1204
871.683	1212
873.363	1194
875.044	1212
876.723	1234
878.402	1214
880.083	1188
881.761	1234
883.439	1212
885.116	1246
886.795	1250
888.472	1204
890.149	1194
891.825	1202
893.503	1236
895.179	1214
896.854	1180
898.529	1182
900.204	1212
901.88	1236
903.555	1264
905.228	1226
906.902	1260
908.575	1246
910.25	1214
911.922	1262
913.595	1250
915.266	1228
916.938	1240
918.609	1216
920.28	1238
921.951	1218
923.623	1246
925.293	1286
926.963	1262
928.633	1246
930.302	1274
931.97	1300
933.639	1254
935.307	1264
936.975	1294
938.642	1254
940.31	1310
941.977	1300
943.643	1228
945.31	1298
946.976	1318
948.641	1320
950.307	1288
951.972	1302
953.636	1318
955.301	1294
956.965	1292
958.629	1322
960.292	1300
961.955	1298
963.618	1344
965.279	1298
966.941	1330
968.603	1308
970.265	1310
971.926	1332
973.587	1322
975.248	1344
976.908	1336
978.566	1336
980.226	1356
981.886	1326
983.545	1342
985.204	1310
986.86	1344
988.519	1338
990.177	1322
991.834	1326
993.491	1298
995.147	1374
996.803	1306
998.46	1340
1000.12	1334
1001.77	1376
1003.43	1310
1005.08	1312
1006.73	1326
1008.39	1336
1010.04	1340
1011.7	1338
1013.35	1376
1015	1346
1016.65	1380
1018.3	1376
1019.96	1362
1021.61	1390
1023.26	1424
1024.91	1410
1026.56	1438
1028.21	1400
1029.86	1418
1031.51	1442
1033.16	1462
1034.81	1438
1036.46	1402
1038.1	1480
1039.75	1488
1041.4	1482
1043.05	1472
1044.69	1492
1046.34	1496
1047.99	1468
1049.63	1500
1051.28	1510
1052.92	1496
1054.57	1480
1056.21	1510
1057.86	1480
1059.5	1482
1061.14	1538
1062.79	1512
1064.43	1592
1066.07	1588
1067.72	1546
1069.36	1520
1071	1628
1072.64	1548
1074.28	1562
1075.92	1628
1077.57	1578
1079.2	1612
1080.84	1596
1082.48	1654
1084.12	1598
1085.76	1672
1087.4	1640
1089.04	1642
1090.68	1660
1092.32	1618
1093.95	1642
1095.59	1614
1097.22	1624
1098.86	1632
1100.5	1640
1102.13	1618
1103.77	1674
1105.4	1638
1107.04	1678
1108.67	1636
1110.31	1638
1111.94	1628
1113.58	1588
1115.21	1578
1116.84	1606
1118.47	1598
1120.1	1612
1121.74	1562
1123.37	1590
1125	1614
1126.63	1608
1128.26	1546
1129.89	1604
1131.52	1552
1133.15	1546
1134.78	1598
1136.41	1564
1138.04	1538
1139.67	1526
1141.3	1554
1142.92	1578
1144.55	1570
1146.18	1570
1147.8	1572
1149.43	1596
1151.06	1558
1152.68	1568
1154.31	1572
1155.93	1574
1157.56	1550
1159.18	1570
1160.81	1522
1162.43	1562
1164.06	1616
1165.68	1548
1167.3	1596
1168.93	1548
1170.55	1576
1172.17	1552
1173.79	1628
1175.41	1600
1177.03	1610
1178.66	1588
1180.28	1558
1181.9	1596
1183.52	1548
1185.14	1634
1186.75	1582
1188.37	1596
1189.99	1616
1191.61	1580
1193.23	1598
1194.85	1620
1196.46	1534
1198.08	1598
1199.7	1604
1201.31	1598
1202.93	1590
1204.55	1612
1206.16	1606
1207.78	1624
1209.39	1656
1211.01	1636
1212.62	1644
1214.24	1648
1215.85	1566
1217.46	1658
1219.08	1604
1220.69	1648
1222.3	1630
1223.91	1604
1225.53	1698
1227.14	1642
1228.75	1648
1230.36	1638
1231.97	1708
1233.58	1632
1235.19	1726
1236.8	1652
1238.41	1698
1240.02	1654
1241.63	1740
1243.23	1740
1244.84	1714
1246.45	1716
1248.06	1732
1249.67	1724
1251.27	1702
1252.88	1802
1254.48	1804
1256.09	1810
1257.7	1734
1259.3	1796
1260.91	1738
1262.51	1798
1264.12	1806
1265.72	1818
1267.32	1836
1268.93	1816
1270.53	1852
1272.13	1858
1273.73	1856
1275.34	1892
1276.94	1876
1278.54	1892
1280.14	1956
1281.74	1968
1283.35	1978
1284.94	1964
1286.54	2044
1288.15	2035
1289.74	2026
1291.34	2106
1292.94	2108
1294.54	2144
1296.14	2160
1297.74	2186
1299.33	2196
1300.93	2218
1302.53	2298
1304.12	2308
1305.72	2372
1307.32	2330
1308.91	2456
1310.51	2352
1312.1	2484
1313.7	2538
1315.29	2644
1316.89	2600
1318.48	2654
1320.07	2688
1321.67	2704
1323.26	2720
1324.85	2814
1326.45	2890
1328.04	2936
1329.63	2986
1331.22	3054
1332.81	3088
1334.4	3116
1335.99	3214
1337.58	3192
1339.17	3232
1340.77	3280
1342.35	3292
1343.94	3282
1345.53	3324
1347.12	3322
1348.71	3282
1350.3	3362
1351.88	3224
1353.47	3208
1355.06	3140
1356.64	3074
1358.23	3152
1359.82	3062
1361.4	2992
1362.99	3000
1364.57	2880
1366.16	2894
1367.74	2802
1369.33	2844
1370.91	2694
1372.49	2634
1374.08	2622
1375.66	2526
1377.24	2574
1378.82	2518
1380.41	2462
1381.99	2396
1383.57	2328
1385.15	2326
1386.73	2336
1388.31	2292
1389.89	2246
1391.47	2232
1393.05	2210
1394.63	2186
1396.21	2140
1397.79	2188
1399.37	2148
1400.95	2138
1402.52	2062
1404.1	2088
1405.68	2056
1407.25	2060
1408.83	2050
1410.41	2084
1411.98	2066
1413.56	1964
1415.13	2026
1416.71	2024
1418.29	1986
1419.86	2012
1421.43	2002
1423.01	1916
1424.58	1952
1426.15	1918
1427.73	1978
1429.3	1940
1430.87	1964
1432.44	1954
1434.02	1958
1435.59	1960
1437.16	1950
1438.73	1914
1440.3	1970
1441.87	1906
1443.44	1938
1445.01	1928
1446.58	1918
1448.15	1942
1449.72	1902
1451.29	1928
1452.85	1908
1454.42	1926
1455.99	1880
1457.56	1846
1459.12	1944
1460.69	1904
1462.26	1866
1463.82	1892
1465.39	1912
1466.95	1890
1468.52	1962
1470.08	1912
1471.65	1906
1473.21	1942
1474.78	1924
1476.34	1904
1477.9	1904
1479.47	1894
1481.03	1892
1482.59	1848
1484.16	1898
1485.72	1922
1487.28	1896
1488.84	1900
1490.4	1938
1491.96	1904
1493.52	1954
1495.08	1890
1496.64	1932
1498.2	1952
1499.76	1924
1501.32	1978
1502.88	1930
1504.44	1946
1506	1972
1507.55	2054
1509.11	1934
1510.67	1996
1512.22	1966
1513.78	1978
1515.34	2036
1516.89	2018
1518.45	2082
1520.01	2046
1521.56	2048
1523.11	2052
1524.67	2048
1526.22	2104
1527.78	2090
1529.33	2112
1530.88	2104
1532.44	2156
1533.99	2128
1535.54	2254
1537.09	2302
1538.65	2268
1540.2	2332
1541.75	2352
1543.3	2348
1544.85	2378
1546.4	2452
1547.95	2524
1549.5	2526
1551.05	2538
1552.6	2596
1554.15	2622
1555.7	2682
1557.25	2706
1558.79	2852
1560.34	2870
1561.89	2916
1563.43	2918
1564.98	3000
1566.53	3052
1568.08	3118
1569.62	3164
1571.17	3224
1572.71	3294
1574.26	3358
1575.8	3338
1577.35	3366
1578.89	3356
1580.43	3350
1581.98	3294
1583.52	3284
1585.06	3214
1586.61	3206
1588.15	3166
1589.69	3148
1591.23	3042
1592.77	3038
1594.32	3018
1595.86	2920
1597.4	2934
1598.94	2916
1600.48	2842
1602.02	2802
1603.56	2788
1605.1	2828
1606.64	2694.99
1608.18	2658.72
1609.71	2638.31
1611.25	2504.73
1612.79	2554.47
1614.33	2463.04
1615.86	2298.96
1617.4	2318.81
1618.94	2266.58
1620.47	2194.09
1622.01	2145.87
1623.55	2128.31
1625.08	2010.33
1626.62	1988.47
1628.15	1908.73
1629.69	1896.87
1631.22	1812.02
1632.75	1816.56
1634.29	1730.13
1635.82	1677.96
1637.35	1682.83
1638.89	1598.36
1640.42	1597.62
1641.95	1557.06
1643.48	1505.45
1645.02	1490.37
1646.55	1461.62
1648.08	1477.8
1649.61	1426.83
1651.14	1385.7
1652.67	1372.26
1654.2	1317.53
1655.73	1336.85
1657.26	1314.27
1658.79	1296.29
1660.32	1323.73
1661.84	1266.46
1663.37	1296.03
1664.9	1224.42
1666.43	1177.93
1667.96	1198.97
1669.48	1168.56
1671.01	1156.81
1672.54	1119.22
1674.06	1130.15
1675.59	1124.14
1677.11	1086.14
1678.64	1096.76
1680.16	1103.71
1681.69	1036.71
1683.21	1046.98
1684.74	1011.49
1686.26	1013.09
1687.79	988.118
1689.31	1002.38
1690.83	983.881
1692.35	973.196
1693.88	958.223
1695.4	935.869
1696.92	891.445
1698.44	905.823
1699.96	898.435
1701.48	888.149
1703.01	870.411
1704.53	831.555
1706.05	846.177
1707.57	826.152
1709.09	832.103
1710.6	804.024
1712.12	803.361
1713.64	795.84
1715.16	775.873
1716.68	740.938
1718.2	735.026
1719.71	720.737
1721.23	716.794
1722.75	721.095
1724.27	695.02
1725.78	677.255
1727.3	671.462
1728.81	661.035
1730.33	656.305
1731.84	643.292
1733.36	640.002
1734.88	611.461
1736.39	628.249
1737.9	585.09
1739.42	571.677
1740.93	547.405
1742.44	557.3
1743.96	545.18
1745.47	535.303
1746.98	516.458
1748.49	535.75
1750.01	485.491
1751.52	485.157
1753.03	467.269
1754.54	450.014
1756.05	443.919
1757.56	424.02
1757.63	418
1759.14	436
1760.66	444
1762.18	402
1763.69	424
1765.21	420
1766.72	438
1768.24	422
1769.75	414
1771.27	438
1772.78	464
1774.3	412
1775.81	458
1777.32	444
1778.84	436
1780.35	432
1781.86	426
1783.38	430
1784.89	448
1786.4	422
1787.91	440
1789.42	432
1790.93	446
1792.44	426
1793.95	422
1795.47	420
1796.98	438
1798.48	452
1799.99	432
1801.5	438
1803.01	444
1804.52	416
1806.03	444
1807.54	432
1809.04	410
1810.55	432
1812.06	456
1813.57	438
1815.07	472
1816.58	424
1818.08	456
1819.59	406
1821.09	410
1822.6	462
1824.11	450
1825.61	430
1827.11	442
1828.62	410
1830.12	452
1831.63	438
1833.13	438
1834.63	442
1836.13	426
1837.64	428
1839.14	438
1840.64	424
1842.14	428
1843.64	426
1845.14	426
1846.64	430
1848.14	428
1849.64	440
1851.14	458
1852.64	446
1854.14	462
1855.64	430
1857.14	440
1858.64	436
1860.14	438
1861.64	428
1863.13	432
1864.63	450
1866.13	434
1867.63	452
1869.12	430
1870.62	430
1872.11	422
1873.61	446
1875.1	464
1876.6	430
1878.09	422
1879.59	466
1881.08	436
1882.58	434
1884.07	424
1885.56	442
1887.06	444
1888.55	444
1890.04	454
1891.54	446
1893.03	414
1894.52	428
1896.01	442
1897.5	444
1898.99	430
1900.48	422
1901.97	450
1903.46	438
1904.96	442
1906.44	412
1907.93	442
1909.42	438
1910.91	448
1912.4	446
1913.89	432
1915.38	424
1916.86	434
1918.35	428
1919.84	438
1921.32	470
1922.81	420
1924.3	426
1925.78	438
1927.27	434
1928.76	442
1930.24	444
1931.72	458
1933.21	450
1934.69	442
1936.18	448
1937.66	460
1939.15	444
1940.63	458
1942.11	446
1943.59	452
1945.08	458
1946.56	446
1948.04	440
1949.52	438
1951	452
1952.48	438
1953.97	452
1955.45	458
1956.93	454
1958.41	460
1959.89	440
1961.37	462
1962.85	440
1964.32	434
1965.8	408
1967.28	440
1968.76	438
1970.24	438
1971.71	438
1973.19	420
1974.67	448
1976.15	466
1977.62	428
1979.1	446
1980.57	422
1982.05	452
1983.53	464
1985	438
1986.48	454
1987.95	432
1989.42	432
1990.9	452
1992.37	434
1993.85	432
1995.32	466
1996.79	462
1998.26	438
1999.74	460
2001.21	424
2002.68	458
2004.15	430
2005.62	432
2007.09	430
2008.56	446
2010.03	430
2011.51	436
2012.98	454
2014.44	438
2015.92	444
2017.38	456
2018.85	432
2020.32	450
2021.79	456
2023.26	434
2024.73	432
2026.19	418
2027.66	442
2029.13	450
2030.59	460
2032.06	448
2033.53	442
2034.99	448
2036.46	430
2037.92	454
2039.39	460
2040.85	464
2042.32	460
2043.78	456
2045.25	438
2046.71	442
2048.17	460
2049.64	460
2051.1	438
2052.56	452
2054.02	456
2055.49	442
2056.95	434
2058.41	478
2059.87	426
2061.33	434
2062.79	448
2064.25	436
2065.71	444
2067.17	446
2068.63	442
2070.09	432
2071.55	446
2073.01	440
2074.47	420
2075.93	442
2077.39	448
2078.84	464
2080.3	462
2081.76	428
2083.22	472
2084.67	450
2086.13	434
2087.59	464
2089.04	446
2090.5	424
2091.95	440
2093.41	438
2094.86	420
2096.32	442
2097.77	440
2099.23	436
2100.68	434
2102.13	432
2103.59	426
2105.04	442
2106.49	444
2107.95	468
2109.4	444
2110.85	446
2112.3	432
2113.75	470
2115.21	454
2116.66	438
2118.11	434
2119.56	446
2121.01	448
2122.46	420
2123.91	454
2125.36	478
2126.8	458
2128.25	438
2129.7	440
2131.15	440
2132.6	458
2134.05	432
2135.49	476
2136.94	452
2138.39	464
2139.83	450
2141.28	450
2142.73	458
2144.17	452
2145.62	464
2147.06	460
2148.51	436
2149.95	462
2151.4	432
2152.84	450
2154.29	458
2155.73	440
2157.17	470
2158.62	456
2160.06	438
2161.5	470
2162.95	450
2164.39	448
2165.83	466
2167.27	448
2168.71	464
2170.15	430
2171.59	464
2173.04	456
2174.48	496
2175.92	434
2177.36	458
2178.79	482
2180.24	468
2181.67	460
2183.11	452
2184.55	452
2185.99	468
2187.43	472
2188.86	444
2190.3	450
2191.74	442
2193.18	462
2194.61	448
2196.05	456
2197.49	460
2198.92	470
2200.36	436
2201.79	436
2203.23	452
2204.66	478
2206.1	450
2207.53	446
2208.97	446
2210.4	432
2211.83	444
2213.27	448
2214.7	434
2216.13	456
2217.57	464
2219	426
2220.43	428
2221.86	422
2223.29	448
2224.72	466
2226.15	438
2227.59	444
2229.02	424
2230.45	466
2231.88	436
2233.31	412
2234.74	442
2236.16	430
2237.59	434
2239.02	438
2240.45	462
2241.88	440
2243.31	410
2244.73	410
2246.16	432
2247.59	448
2249.01	446
2250.44	426
2251.87	454
2253.29	428
2254.72	436
2256.15	442
2257.57	446
2259	450
2260.42	448
2261.84	430
2263.27	432
2264.69	446
2266.12	432
2267.54	450
2268.96	454
2270.39	450
2271.81	428
2273.23	458
2274.65	454
2276.07	442
2277.5	440
2278.92	434
2280.34	458
2281.76	456
2283.18	428
2284.6	438
2286.02	452
2287.44	454
2288.86	446
2290.28	452
2291.7	468
2293.12	454
2294.54	452
2295.95	442
2297.37	448
2298.79	454
2300.21	438
2301.62	444
2303.04	484
2304.46	464
2305.88	464
2307.29	466
2308.71	456
2310.12	444
2311.54	474
2312.95	458
2314.37	466
2315.78	426
2317.2	476
2318.61	440
2320.02	456
2321.44	444
2322.85	498
2324.27	448
2325.68	482
2327.09	512
2328.5	482
2329.92	482
2331.33	458
2332.74	480
2334.15	486
2335.56	478
2336.97	484
2338.38	468
2339.79	460
2341.2	480
2342.61	470
2344.02	480
2345.43	478
2346.84	472
2348.25	494
2349.66	470
2351.07	474
2352.48	460
2353.88	464
2355.29	478
2356.7	472
2358.11	478
2359.51	494
2360.92	502
2362.32	486
2363.73	498
2365.14	488
2366.54	486
2367.95	488
2369.35	482
2370.76	482
2372.16	474
2373.57	506
2374.97	482
2376.37	464
2377.78	502
2379.18	504
2380.58	494
2381.99	488
2383.39	510
2384.79	510
2386.19	516
2387.59	528
2389	484
2390.4	482
2391.8	484
2393.2	508
2394.6	526
2396	498
2397.4	514
2398.8	492
2400.2	486
2401.6	494
2403	500
2404.39	532
2405.79	478
2407.19	528
2408.59	516
2409.99	496
2411.38	516
2412.78	522
2414.18	502
2415.57	538
2416.97	518
2418.37	524
2419.76	508
2421.16	504
2422.55	512
2423.95	504
2425.34	518
2426.74	500
2428.13	530
2429.53	544
2430.92	526
2432.31	524
2433.71	540
2435.1	530
2436.49	536
2437.89	556
2439.28	506
2440.67	546
2442.06	522
2443.45	526
2444.85	510
2446.24	532
2447.63	510
2449.02	534
2450.41	516
2451.8	570
2453.19	534
2454.58	548
2455.97	522
2457.36	546
2458.75	570
2460.13	524
2461.52	544
2462.91	532
2464.3	548
2465.69	544
2467.07	532
2468.46	538
2469.85	534
2471.24	550
2472.62	548
2474.01	536
2475.39	524
2476.78	524
2478.16	562
2479.55	542
2480.94	564
2482.32	546
2483.7	500
2485.09	562
2486.47	538
2487.85	534
2489.24	558
2490.62	558
2492	534
2493.39	546
2494.77	548
2496.15	524
2497.53	558
2498.92	546
2500.3	534
2501.68	546
2503.06	534
2504.44	520
2505.82	548
2507.2	546
2508.58	552
2509.96	512
2511.34	524
2512.72	538
2514.1	532
2515.48	532
2516.85	554
2518.23	536
2519.61	520
2520.99	550
2522.37	562
2523.74	550
2525.12	530
2526.5	566
2527.87	534
2529.25	526
2530.63	554
2532	580
2533.38	534
2534.75	532
2536.13	570
2537.5	570
2538.88	540
2540.25	560
2541.62	546
2543	554
2544.37	550
2545.75	544
2547.12	534
2548.49	560
2549.86	584
2551.24	554
2552.61	550
2553.98	528
2555.35	542
2556.72	538
2558.09	536
2559.47	578
2560.84	566
2562.21	556
2563.57	568
2564.95	576
2566.32	576
2567.68	572
2569.05	578
2570.42	542
2571.79	578
2573.16	552
2574.53	572
2575.9	560
2577.26	568
2578.63	576
2580	548
2581.36	574
2582.73	580
2584.1	552
2585.46	552
2586.83	560
2588.19	588
2589.56	594
2590.93	582
2592.29	606
2593.66	584
2595.02	626
2596.39	594
2597.75	582
2599.11	572
2600.47	616
2601.84	626
2603.2	614
2604.56	596
2605.93	614
2607.29	628
2608.65	602
2610.01	600
2611.38	608
2612.74	596
2614.1	602
2615.46	626
2616.82	618
2618.18	598
2619.54	614
2620.9	640
2622.26	618
2623.62	628
2624.98	630
2626.34	628
2627.69	636
2629.05	642
2630.41	662
2631.77	666
2633.13	628
2634.48	636
2635.84	668
2637.2	646
2638.56	658
2639.91	688
2641.27	674
2642.62	656
2643.98	646
2645.33	684
2646.69	694
2648.05	670
2649.4	695
2650.75	720
2652.11	688
2653.46	738
2654.82	724
2656.17	678
2657.52	722
2658.88	692
2660.23	744
2661.58	776
2662.94	754
2664.29	740
2665.64	762
2666.99	766
2668.34	766
2669.69	758
2671.04	792
2672.39	762
2673.75	798
2675.09	802
2676.45	812
2677.79	842
2679.14	790
2680.49	812
2681.84	842
2683.19	786
2684.54	814
2685.89	812
2687.24	828
2688.58	838
2689.93	860
2691.28	854
2692.63	874
2693.97	842
2695.32	858
2696.67	810
2698.01	862
2699.36	886
2700.7	856
2702.05	852
2703.39	814
2704.74	822
2706.08	856
2707.43	846
2708.77	832
2710.12	828
2711.46	836
2712.8	844
2714.15	824
2715.49	800
2716.83	786
2718.17	800
2719.52	798
2720.86	794
2722.2	772
2723.54	772
2724.88	794
2726.22	742
2727.57	764
2728.91	764
2730.25	748
2731.59	748
2732.93	760
2734.27	754
2735.61	724
2736.95	720
2738.28	704
2739.62	738
2740.96	710
2742.3	690
2743.64	698
2744.98	704
2746.31	708
2747.65	686
2748.99	672
2750.33	690
2751.66	678
2753	684
2754.33	682
2755.67	670
2757.01	702
2758.34	658
2759.68	692
2761.01	660
2762.35	710
2763.68	668
2765.01	652
2766.35	646
2767.68	634
2769.02	666
2770.35	628
2771.68	636
2773.02	638
2774.35	684
2775.68	660
2777.01	652
2778.35	620
2779.68	666
2781.01	658
2782.34	632
2783.67	658
2785	672
2786.33	644
2787.66	662
2788.99	680
2790.32	658
2791.65	642
2792.98	668
2794.31	662
2795.64	664
2796.97	662
2798.3	656
2799.62	640
2800.95	668
2802.28	676
2803.61	690
2804.93	692
2806.26	678
2807.59	654
2808.91	660
2810.24	646
2811.57	680
2812.89	658
2814.22	672
2815.54	668
2816.87	686
2818.19	628
2819.52	658
2820.84	644
2822.17	690
2823.49	662
2824.81	682
2826.14	658
2827.46	652
2828.78	672
2830.11	652
2831.43	670
2832.75	678
2834.07	652
2835.39	668
2836.72	692
2838.04	696
2839.36	682
2840.68	684
2842	620
2843.32	650
2844.64	678
2845.96	662
2847.28	682
2848.6	650
2849.92	688
2851.24	664
2852.56	634
2853.88	652
2855.19	698
2856.51	684
2857.83	704
2859.15	654
2860.46	644
2861.78	670
2863.1	682
2864.42	662
2865.73	706
2867.05	686
2868.36	696
2869.68	684
2871	724
2872.31	700
2873.63	680
2874.94	672
2876.26	698
2877.57	666
2878.88	704
2880.2	720
2881.51	712
2882.82	698
2884.14	670
2885.45	732
2886.76	710
2888.08	726
2889.39	698
2890.7	692
2892.01	722
2893.33	692
2894.64	720
2895.95	694
2897.26	674
2898.57	696
2899.88	720
2901.19	708
2902.5	718
2903.81	724
2905.12	684
2906.43	676
2907.74	716
2909.05	716
2910.35	722
2911.66	754
2912.97	716
2914.28	704
2915.59	722
2916.89	714
2918.2	728.117
2919.51	705.04
2920.82	740.832
2922.12	706.331
2923.43	754.721
2924.73	728.692
2926.04	751.863
2927.35	737.704
2928.65	757.8
2929.96	753.039
2931.26	725.647
2932.57	739.56
2933.87	743.206
2935.17	717.289
2936.48	759.055
2937.78	712.96
2939.09	752.359
2940.39	741.783
2941.69	715.345
2943	720.564
2944.3	721.92
2945.6	717.633
2946.9	726.551
2948.2	747.575
2949.51	721.88
2950.81	752.218
2952.11	735.802
2953.41	733.336
2954.71	761.17
2956.01	760.014
2957.31	729.059
2958.61	748.624
2959.91	749.034
2961.21	751.783
2962.51	758.37
2963.81	742.483
2965.11	739.129
2966.41	748.694
2967.71	757.307
2969.01	754.093
2970.3	729.213
2971.6	716.832
2972.9	736.758
2974.2	749.769
2975.49	748.98
2976.79	755.524
2978.09	745.349
2979.39	746.06
2980.68	741.129
2981.98	723.705
2983.27	746.676
2984.57	745.296
2985.86	736.652
2987.16	743.339
2988.45	753.921
2989.75	760.934
2991.04	738.533
2992.34	743.172
2993.63	747.91
2994.93	755.68
2996.22	745.372
2997.51	754.965
2998.81	744.636
3000.1	723.013
3001.39	738.092
3002.68	759.76
3003.98	733.708
3005.27	747.434
3006.56	737.818
3007.85	749.885
3009.14	761.869
3010.43	753.867
3011.72	745.38
3013.01	763.186
3014.31	752.671
3015.59	765.626
3016.89	757.469
3018.18	765.255
3019.47	746.057
3020.75	734.838
3022.04	712.125
3023.33	738.969
3024.62	741.604
3025.91	759.974
3027.2	739.144
3028.48	743.537
3029.77	741.414
3031.06	746.359
3032.35	751.36
3033.64	760.328
3034.92	773.144
3036.21	764.048
3037.5	754.079
3038.78	760.761
3040.07	762.676
3041.35	768.94
3042.64	752.462
3043.92	772.713
3045.21	789.486
3046.49	746.099
3047.78	754.918
3048.11	764
3049.4	776
3050.69	752
3051.98	778
3053.27	764
3054.56	770
3055.85	740
3057.14	784
3058.43	774
3059.72	766
3061.01	766
3062.29	760
3063.58	780
3064.87	770
3066.16	756
3067.44	778
3068.73	738
3070.02	772
3071.31	758
3072.59	810
3073.88	784
3075.16	754
3076.45	796
3077.73	800
3079.02	772
3080.31	766
3081.59	774
3082.87	762
3084.16	802
3085.44	784
3086.73	772
3088.01	810
3089.29	784
3090.58	798
3091.86	792
3093.14	760
3094.43	780
3095.71	746
3096.99	790
3098.27	806
3099.55	770
3100.84	810
3102.12	746
3103.4	792
3104.68	790
3105.96	770
3107.24	776
3108.52	784
3109.8	802
3111.08	782
3112.36	800
3113.64	814
3114.92	792
3116.2	786
3117.48	804
3118.75	802
3120.03	818
3121.31	820
3122.59	814
3123.87	776
3125.14	812
3126.42	822
3127.7	794
3128.97	792
3130.25	804
3131.53	828
3132.8	816
3134.08	802
3135.35	806
3136.63	826
3137.9	808
3139.18	808
3140.45	824
3141.73	802
3143	826
3144.28	796
3145.55	826
3146.82	814
3148.1	848
3149.37	854
3150.64	876
3151.92	812
3153.19	874
3154.46	836
3155.73	836
3157.01	856
3158.28	814
3159.55	828
3160.82	840
3162.09	852
3163.36	830
3164.63	832
3165.9	816
3167.17	850
3168.44	830
3169.71	830
3170.98	836
3172.25	852
3173.52	796
3174.79	828
3176.06	844
3177.32	856
3178.59	854
3179.86	870
3181.13	844
3182.4	858
3183.66	872
3184.93	854
3186.2	860
3187.46	880
3188.73	840
3190	832
3191.26	876
3192.53	874
3193.79	842
3195.06	852
3196.32	862
3197.59	840
3198.85	848
3200.12	848
3201.38	844
3202.65	842
3203.91	842
3205.17	872
3206.44	880
3207.7	852
3208.96	888
3210.23	866
3211.49	870
3212.75	866
3214.01	846
3215.27	882
3216.54	842
3217.8	850
3219.06	844
3220.32	848
3221.58	880
3222.84	854
3224.1	884
3225.36	862
3226.62	860
3227.88	860
3229.14	824
3230.4	868
3231.66	850
3232.92	884
3234.18	894
3235.44	870
3236.69	860
3237.95	872
3239.21	886
3240.47	898
3241.72	856
3242.98	878
3244.24	902
3245.5	854
3246.75	898
3248.01	890
3249.26	882
3250.52	898
3251.78	892
3253.03	888
3254.29	890
3255.54	880
3256.8	882
3258.05	880
3259.3	876
3260.56	886
3261.81	876
3263.07	844
3264.32	898
3265.57	854
3266.83	882
3268.08	874
3269.33	866
3270.58	880
3271.84	888
3273.09	896
3274.34	896
3275.59	864
3276.84	858
3278.09	880
3279.35	862
3280.6	852
3281.85	884
3283.1	900
3284.35	926
3285.6	880
3286.85	878
3288.1	868
3289.35	884
3290.59	888
3291.84	902
3293.09	882
3294.34	886
3295.59	902
3296.84	882
3298.08	886
3299.33	908
3300.58	896
3301.83	910
3303.07	880
3304.32	906
3305.57	906
3306.81	900
3308.06	902
3309.3	908
3310.55	924
3311.79	948
3313.04	926
3314.29	914
3315.53	920
3316.77	910
3318.02	932
3319.26	912
3320.51	944
3321.75	896
3322.99	892
3324.24	942
3325.48	898
3326.72	930
3327.97	952
3329.21	902
3330.45	934
3331.69	914
3332.93	922
3334.18	930
3335.42	938
3336.66	920
3337.9	922
3339.14	914
3340.38	952
3341.62	946
3342.86	940
3344.1	958
3345.34	910
3346.58	928
3347.82	920
3349.06	938
3350.3	940
3351.54	940
3352.77	946
3354.01	916
3355.25	906
3356.49	920
3357.73	942
3358.96	916
3360.2	904
3361.44	930
3362.67	926
3363.91	940
3365.15	926
3366.38	890
3367.62	936
3368.85	930
3370.09	932
3371.33	936
3372.56	902
3373.8	946
3375.03	938
3376.26	954
3377.5	920
3378.73	930
3379.97	932
3381.2	932
3382.43	936
3383.67	988
3384.9	902
3386.13	970
3387.37	954
3388.6	978
3389.83	950
3391.06	910
3392.29	940
3393.52	936
3394.76	944
3395.99	960
3397.22	958
3398.45	930
3399.68	950
3400.91	972
3402.14	988
3403.37	968
3404.6	982
3405.83	982
3407.06	930
3408.29	936
3409.51	988
3410.74	964
3411.97	980
3413.2	984
3414.43	976
3415.66	930
3416.88	976
3418.11	1010
3419.34	996
3420.56	984
3421.79	962
3423.02	968
3424.24	980
3425.47	978
3426.7	958
3427.92	996
3429.15	968
3430.37	990
3431.6	1010
3432.82	964
3434.05	1018
3435.27	1026
3436.5	996
3437.72	1002
3438.94	990
3440.17	1000
3441.39	1002
3442.61	994
3443.84	1010
3445.06	1010
3446.28	988
3447.51	1016
3448.73	1028
3449.95	982
3451.17	1004
3452.39	1000
3453.61	1020
3454.83	1034
3456.06	998
3457.28	1022
3458.5	1030
3459.72	1040
3460.94	998
3462.16	1018
3463.38	1058
3464.6	1050
3465.82	1040
3467.04	1054
3468.25	1038
3469.47	1034
3470.69	1050
3471.91	1022
3473.13	1030
3474.34	1022
3475.56	1042
3476.78	1032
3478	1036
3479.21	1066
3480.43	1036
3481.65	1000
3482.86	1054
3484.08	1042
3485.3	1024
3486.51	1024
3487.73	1022
3488.94	1038
3490.16	1072
3491.37	1010
3492.59	1026
3493.8	1032
3495.02	1042
3496.23	1030
3497.45	1028
3498.66	1048
3499.87	1038
3501.09	1044
3502.3	1048
3503.51	1066
3504.72	1032
3505.94	1054
3507.15	1072
3508.36	1056
3509.57	1072
3510.79	1058
3512	1058
3513.21	1016
3514.42	1018
3515.63	1030
3516.84	1052
3518.05	1006
3519.26	1004
3520.47	1042
3521.68	1020
3522.89	1032
3524.1	1084
3525.31	1064
3526.52	1054
3527.73	1058
3528.94	1060
3530.14	1038
3531.35	1058
3532.56	1032
3533.77	1058
3534.98	1082
3536.18	1064
3537.39	1046
3538.6	1056
3539.81	1052
3541.01	1038
3542.22	1036
3543.42	1070
3544.63	1076
3545.84	1052
3547.04	1046
3548.25	1024
3549.45	1032
3550.66	1042
3551.86	1046
3553.07	1040
3554.27	1046
3555.47	1052
3556.68	1056
3557.88	1094
3559.09	1044
3560.29	1068
3561.49	1092
3562.7	1062
3563.9	1110
3565.1	1054
3566.3	1036
3567.51	1100
3568.71	1100
3569.91	1078
3571.11	1050
3572.31	1104
3573.51	1092
3574.71	1052
3575.92	1092
3577.12	1096
3578.32	1092
3579.52	1104
3580.72	1116
3581.92	1070
3583.12	1098
3584.31	1084
3585.51	1108
3586.71	1116
3587.91	1130
3589.11	1102
3590.31	1106
3591.51	1104
3592.71	1124
3593.9	1158
3595.1	1114
3596.3	1098
3597.49	1088
3598.69	1106
3599.89	1114
3601.08	1152
3602.28	1126
3603.48	1116
3604.67	1124
3605.87	1114
3607.06	1124
3608.26	1152
3609.45	1154
3610.65	1130
3611.84	1124
3613.04	1124
3614.23	1150
3615.43	1140
3616.62	1170
3617.82	1100
3619.01	1126
3620.2	1116
3621.39	1118
3622.59	1122
3623.78	1138
3624.97	1148
3626.17	1154
3627.36	1120
3628.55	1158
3629.74	1178
3630.93	1172
3632.12	1142
3633.31	1132
3634.51	1182
3635.7	1124
3636.89	1122
3638.08	1150
3639.27	1148
3640.46	1162
3641.65	1184
3642.84	1136
3644.03	1172
3645.22	1128
3646.4	1170
3647.59	1102
3648.78	1172
3649.97	1204
3651.16	1162
3652.35	1130
3653.53	1158
3654.72	1164
3655.91	1168
3657.1	1162
3658.28	1128
3659.47	1160
3660.66	1136
3661.84	1168
3663.03	1142
3664.21	1162
3665.4	1148
3666.59	1136
3667.77	1178
3668.96	1146
3670.14	1154
3671.33	1132
3672.51	1154
3673.69	1074
3674.88	1180
3676.06	1150
3677.25	1172
3678.43	1152
3679.61	1152
3680.8	1168
3681.98	1150
3683.16	1144
3684.34	1154
3685.53	1202
3686.71	1178
3687.89	1158
3689.07	1176
3690.25	1100
3691.44	1146
3692.62	1180
3693.8	1160
3694.98	1188
3696.16	1158
3697.34	1166
3698.52	1172
3699.7	1162
3700.88	1154
3702.06	1172
3703.24	1164
3704.42	1156
3705.6	1142
3706.78	1174
3707.96	1194
3709.13	1114
3710.31	1180
3711.49	1152
3712.67	1188
3713.85	1180
3715.02	1174
3716.2	1188
3717.38	1178
3718.56	1156
3719.73	1176
3720.91	1184
3722.08	1208
3723.26	1160
3724.44	1226
3725.61	1206
3726.79	1222
3727.96	1206
3729.14	1196
3730.31	1238
3731.49	1178
3732.66	1214
3733.84	1202
3735.01	1202
3736.18	1186
3737.36	1220
3738.53	1214
3739.7	1226
3740.88	1182
3742.05	1222
3743.22	1234
3744.4	1222
3745.57	1222
3746.74	1190
3747.91	1234
3749.09	1226
3750.26	1256
3751.43	1226
3752.6	1224
3753.77	1256
3754.94	1196
3756.11	1246
3757.28	1232
3758.45	1246
3759.62	1246
3760.79	1232
3761.96	1234
3763.13	1260
3764.3	1244
3765.47	1236
3766.64	1242
3767.81	1234
3768.98	1242
3770.14	1262
3771.31	1258
3772.48	1260
3773.65	1282
3774.82	1228
3775.98	1244
3777.15	1232
3778.32	1276
3779.48	1256
3780.65	1270
3781.82	1268
3782.98	1274
3784.15	1246
3785.32	1242
3786.48	1294
3787.65	1228
3788.81	1266
3789.98	1242
3791.14	1270
3792.3	1260
3793.47	1206
3794.63	1270
3795.8	1256
3796.96	1268
3798.13	1232
3799.29	1278
3800.45	1268
3801.61	1238
3802.78	1268
3803.94	1214
3805.1	1212
3806.27	1220
3807.43	1280
3808.59	1269
3809.75	1258
3810.91	1260
3812.07	1242
3813.24	1238
3814.4	1242
3815.56	1216
3816.72	1274
3817.88	1220
3819.04	1266
3820.2	1274
3821.36	1308
3822.52	1298
3823.68	1272
3824.84	1266
3826	1284
3827.15	1270
3828.31	1254
3829.47	1260
3830.63	1242
3831.79	1254
3832.95	1252
3834.1	1292
3835.26	1276
3836.42	1256
3837.58	1252
3838.73	1240
3839.89	1240
3841.04	1286
3842.2	1230
3843.36	1264
3844.51	1270
3845.67	1240
3846.83	1298
3847.98	1296
3849.14	1272
3850.29	1288
3851.45	1270
3852.6	1302
3853.76	1268
3854.91	1252
3856.06	1302
3857.22	1282
3858.37	1282
3859.52	1268
3860.68	1304
3861.83	1302
3862.98	1286
3864.14	1300
3865.29	1282
3866.44	1284
3867.59	1274
3868.75	1274
3869.9	1296
3871.05	1296
3872.2	1280
3873.35	1344
3874.5	1308
3875.65	1290
3876.8	1308
3877.95	1306
3879.1	1286
3880.25	1342
3881.4	1304
3882.55	1326
3883.7	1312
3884.85	1264
3886	1336
3887.15	1320
3888.3	1296
3889.45	1290
3890.6	1328
3891.75	1364
3892.89	1352
3894.04	1318
3895.19	1350
3896.34	1348
3897.48	1330
3898.63	1348
3899.78	1270
3900.92	1326
3902.07	1356
3903.22	1380
3904.36	1346
3905.51	1368
3906.65	1340
3907.8	1346
3908.94	1362
3910.09	1358
3911.23	1338
3912.38	1352
3913.52	1368
3914.67	1360
3915.81	1326
3916.96	1350
3918.1	1380
3919.24	1394
3920.39	1332
3921.53	1352
3922.67	1346
3923.82	1334
3924.96	1362
3926.1	1340
3927.24	1372
3928.39	1364
3929.53	1356
3930.67	1376
3931.81	1386
3932.95	1382
3934.09	1334
3935.24	1318
3936.38	1410
3937.52	1368
3938.66	1376
3939.8	1358
3940.94	1388
3942.08	1350
3943.22	1334
3944.36	1402
3945.5	1398
3946.63	1384
3947.77	1344
3948.91	1386
3950.05	1394
3951.19	1342
3952.33	1356
3953.47	1394
3954.6	1328
3955.74	1344
3956.88	1358
3958.02	1390
3959.15	1400
3960.29	1354
3961.43	1370
3962.56	1386
3963.7	1376
3964.84	1384
3965.97	1386
3967.11	1394
3968.24	1368
3969.38	1410
3970.51	1352
3971.65	1368
3972.78	1366
3973.92	1382
3975.05	1346
3976.19	1372
3977.32	1384
3978.45	1390
3979.59	1396
3980.72	1354
3981.85	1388
3982.99	1370
3984.12	1346
3985.25	1398
3986.39	1384
3987.52	1392
3988.65	1334
3989.78	1390
3990.91	1388
3992.05	1344
3993.18	1382
3994.31	1344
3995.44	1384
3996.57	1400
3997.7	1378
3998.83	1394
3999.96	1394
