#Acq. time (s)=	20
#Accumulations=	2
#Range (cm-¹)=	50...4000
#Windows=	3
#Autofocus=	Off
#AutoExposure=	Off
#Spike filter=	Multiple accum.
#Delay time (s)=	0
#Binning=	1
#Readout mode=	Signal
#DeNoise=	Off
#ICS correction=	Off
#Dark correction=	Off
#Inst. Process=	Off
#Instrument=	LabRAM HR Evol
#Detector=	Syncerity OE
#Objective=	x100_VIS
#Grating=	600 (500nm)
#ND Filter=	100%
#Laser=	532nm_Edge
#Hole=	100.021
#Range=	Visible
#Project=	Omar
#Sample=	
#Site=	21-09-22
#Title=	 CN-Sastre
#Remark=	
#Date=	21.09.2022 14:58
#Acquired=	21.09.2022 14:58:54
51.0918	40
52.9354	50
54.7807	48
56.6235	64
58.4681	110
60.3102	150
62.154	224
63.9954	262
65.8385	324
67.6792	412
69.5216	538
71.3615	698
73.2032	890
75.0424	1046
76.8834	1152
78.7218	1308
80.5621	1472
82.3998	1590
84.2393	1662
86.0764	1750
87.9152	1888
89.7515	1956
91.5874	1874
93.4251	1854
95.2603	1838
97.0973	1870
98.9318	1866
100.766	1814
102.602	1906
104.435	2016
106.27	2020
108.103	1912
109.936	1962
111.77	1996
113.601	2066
115.433	1988
117.266	1984
119.096	1940
120.926	1952
122.758	1938
124.588	1936
126.417	1908
128.246	1874
130.076	1880
131.904	1890
133.732	1854
135.561	1912
137.388	1940
139.215	1934
141.041	1876
142.869	1874
144.695	1872
146.52	1900
148.345	1862
150.171	1880
151.995	1868
153.819	1880
155.642	1836
157.465	1822
159.29	1810
161.112	1812
162.934	1858
164.756	1830
166.577	1800
168.398	1832
170.219	1824
172.041	1766
173.861	1800
175.68	1784
177.499	1782
179.318	1772
181.137	1800
182.955	1798
184.772	1782
186.592	1738
188.409	1740
190.225	1756
192.042	1776
193.857	1738
195.673	1766
197.488	1724
199.303	1746
201.118	1710
202.932	1754
204.746	1704
206.559	1674
208.372	1724
210.185	1672
211.997	1664
213.809	1670
215.621	1682
217.432	1690
219.243	1674
221.054	1638
222.864	1630
224.674	1660
226.483	1624
228.293	1614
230.101	1638
231.91	1648
233.718	1644
235.524	1640
237.331	1634
239.138	1626
240.945	1620
242.751	1636
244.557	1632
246.363	1610
248.168	1610
249.971	1602
251.776	1618
253.58	1678
255.384	1630
257.188	1674
258.991	1638
260.792	1676
262.594	1610
264.396	1608
266.198	1676
268	1626
269.799	1650
271.599	1628
273.4	1654
275.2	1682
277	1636
278.797	1620
280.596	1638
282.395	1614
284.193	1602
285.989	1644
287.786	1612
289.584	1636
291.378	1612
293.175	1666
294.971	1626
296.765	1634
298.561	1644
300.356	1634
302.148	1654
303.943	1628
305.737	1656
307.529	1688
309.322	1704
311.115	1674
312.906	1608
314.698	1722
316.49	1700
318.28	1696
320.071	1654
321.86	1676
323.651	1662
325.441	1696
327.229	1644
329.019	1698
330.806	1652
332.595	1696
334.381	1716
336.17	1682
337.955	1698
339.743	1634
341.528	1712
343.315	1680
345.099	1682
346.885	1674
348.669	1692
350.455	1694
352.238	1702
354.022	1692
355.805	1672
357.589	1724
359.371	1702
361.154	1704
362.935	1722
364.718	1706
366.498	1692
368.278	1696
370.06	1692
371.839	1728
373.62	1744
375.398	1696
377.177	1714
378.956	1748
380.734	1728
382.513	1744
384.29	1768
386.067	1762
387.845	1702
389.621	1748
391.396	1744
393.173	1730
394.948	1790
396.723	1728
398.499	1748
400.273	1724
402.046	1734
403.819	1748
405.594	1780
407.366	1778
409.138	1734
410.91	1710
412.683	1728
414.454	1710
416.225	1738
417.995	1746
419.768	1764
421.537	1680
423.307	1706
425.076	1778
426.844	1758
428.615	1740
430.382	1716
432.15	1738
433.917	1762
435.684	1752
437.451	1742
439.219	1782
440.985	1744
442.751	1780
444.516	1728
446.281	1802
448.045	1732
449.81	1764
451.574	1764
453.337	1780
455.102	1778
456.865	1756
458.628	1772
460.39	1748
462.152	1792
463.913	1766
465.674	1782
467.435	1734
469.196	1758
470.956	1728
472.716	1726
474.475	1746
476.234	1712
477.993	1726
479.752	1704
481.51	1744
483.268	1680
485.025	1736
486.782	1722
488.539	1688
490.295	1664
492.051	1666
493.807	1684
495.563	1662
497.316	1676
499.07	1702
500.825	1676
502.579	1662
504.333	1700
506.086	1652
507.839	1666
509.592	1666
511.344	1684
513.094	1692
514.846	1678
516.597	1660
518.349	1734
520.099	1708
521.85	1750
523.598	1746
525.347	1746
527.097	1844
528.846	1814
530.595	1858
532.341	1910
534.089	1996
535.837	2018
537.584	2062
539.329	2096
541.076	2134
542.822	2202
544.568	2182
546.312	2218
548.057	2228
549.802	2336
551.545	2298
553.289	2352
555.033	2346
556.775	2366
558.518	2388
560.261	2348
562.002	2374
563.744	2290
565.487	2306
567.226	2286
568.968	2292
570.709	2228
572.447	2214
574.188	2188
575.926	2202
577.665	2142
579.405	2158
581.142	2114
582.88	2072
584.617	2020
586.355	2016
588.091	2038
589.828	1992
591.565	1972
593.3	1886
595.036	1888
596.77	1882
598.506	1862
600.239	1838
601.974	1828
603.707	1784
605.442	1780
607.174	1744
608.905	1752
610.639	1710
612.37	1762
614.103	1668
615.833	1684
617.565	1684
619.295	1666
621.026	1636
622.755	1610
624.484	1632
626.215	1592
627.943	1554
629.67	1588
631.4	1522
633.127	1570
634.856	1532
636.582	1522
638.308	1530
640.036	1508
641.762	1470
643.487	1462
645.214	1396
646.938	1444
648.662	1442
650.386	1392
652.112	1386
653.835	1354
655.558	1346
657.282	1320
659.005	1334
660.726	1326
662.448	1258
664.171	1256
665.892	1264
667.613	1238
669.333	1238
671.053	1212
672.774	1156
674.494	1142
676.213	1114
677.931	1126
679.649	1142
681.369	1112
683.087	1122
684.804	1086
686.521	1100
688.238	1088
689.954	1076
691.67	1026
693.386	990
695.103	1046
696.818	1018
698.533	976
700.247	984
701.961	940
703.675	980
705.389	966
707.102	956
708.814	928
710.527	914
712.239	884
713.951	920
715.662	924
717.373	902
719.084	886
720.795	878
722.505	880
724.215	890
725.924	882
727.633	854
729.342	870
731.051	858
732.759	868
734.467	876
736.174	832
737.882	842
739.589	864
741.295	850
742.999	834
744.705	864
746.411	882
748.116	838
749.821	914
751.526	858
753.23	850
754.934	874
756.636	882
758.34	902
760.043	928
761.745	890
763.448	898
765.148	906
766.85	908
768.551	926
770.252	918
771.953	878
773.652	914
775.352	912
777.052	906
778.751	926
780.448	928
782.147	930
783.846	880
785.544	920
787.24	906
788.938	890
790.635	892
792.33	898
794.027	876
795.723	898
797.417	882
799.113	886
800.808	878
802.501	868
804.196	896
805.89	876
807.582	838
809.276	824
810.968	826
812.661	822
814.354	826
816.044	790
817.736	754
819.426	786
821.118	808
822.807	744
824.498	756
826.186	752
827.877	760
829.565	720
831.254	714
832.942	688
834.631	710
836.317	700
838.006	654
839.692	682
841.38	678
843.065	682
844.752	634
846.437	684
848.123	644
849.808	636
851.493	642
853.177	666
854.86	620
856.545	638
858.228	658
859.912	666
861.594	670
863.276	674
864.959	650
866.64	652
868.321	678
870.003	654
871.683	642
873.363	628
875.044	668
876.723	652
878.402	662
880.083	662
881.761	666
883.439	666
885.116	666
886.795	658
888.472	642
890.149	670
891.825	672
893.503	716
895.179	654
896.854	694
898.529	680
900.204	702
901.88	692
903.555	734
905.228	716
906.902	724
908.575	720
910.25	756
911.922	742
913.595	764
915.266	782
916.938	734
918.609	754
920.28	784
921.951	796
923.623	812
925.293	824
926.963	836
928.633	812
930.302	824
931.97	850
933.639	918
935.307	936
936.975	942
938.642	924
940.31	946
941.977	948
943.643	940
945.31	958
946.976	972
948.641	944
950.307	978
951.972	944
953.636	940
955.301	996
956.965	972
958.629	982
960.292	910
961.955	982
963.618	960
965.279	920
966.941	952
968.603	936
970.265	970
971.926	946
973.587	982
975.248	990
976.908	978
978.566	982
980.226	990
981.886	1022
983.545	1000
985.204	994
986.86	1086
988.519	1072
990.177	1054
991.834	1062
993.491	1058
995.147	1014
996.803	1086
998.46	1098
1000.12	1090
1001.77	1110
1003.43	1066
1005.08	1060
1006.73	1076
1008.39	1096
1010.04	1092
1011.7	1104
1013.35	1146
1015	1158
1016.65	1180
1018.3	1184
1019.96	1202
1021.61	1202
1023.26	1234
1024.91	1226
1026.56	1272
1028.21	1256
1029.86	1236
1031.51	1302
1033.16	1310
1034.81	1326
1036.46	1394
1038.1	1368
1039.75	1378
1041.4	1444
1043.05	1400
1044.69	1450
1046.34	1508
1047.99	1488
1049.63	1552
1051.28	1538
1052.92	1570
1054.57	1540
1056.21	1630
1057.86	1588
1059.5	1618
1061.14	1712
1062.79	1702
1064.43	1732
1066.07	1714
1067.72	1784
1069.36	1830
1071	1832
1072.64	1860
1074.28	1882
1075.92	1938
1077.57	1904
1079.2	1948
1080.84	1986
1082.48	2002
1084.12	2028
1085.76	2066
1087.4	2052
1089.04	2046
1090.68	2048
1092.32	2080
1093.95	2094
1095.59	2088
1097.22	2042
1098.86	2074
1100.5	2048
1102.13	2054
1103.77	2010
1105.4	1932
1107.04	1966
1108.67	1936
1110.31	1886
1111.94	1822
1113.58	1850
1115.21	1840
1116.84	1776
1118.47	1662
1120.1	1686
1121.74	1654
1123.37	1632
1125	1556
1126.63	1530
1128.26	1542
1129.89	1462
1131.52	1450
1133.15	1430
1134.78	1390
1136.41	1352
1138.04	1314
1139.67	1320
1141.3	1306
1142.92	1256
1144.55	1234
1146.18	1222
1147.8	1240
1149.43	1186
1151.06	1152
1152.68	1134
1154.31	1140
1155.93	1110
1157.56	1074
1159.18	1062
1160.81	1030
1162.43	1024
1164.06	1032
1165.68	1010
1167.3	946
1168.93	1016
1170.55	950
1172.17	956
1173.79	950
1175.41	902
1177.03	900
1178.66	878
1180.28	878
1181.9	864
1183.52	828
1185.14	844
1186.75	816
1188.37	786
1189.99	788
1191.61	776
1193.23	778
1194.85	754
1196.46	744
1198.08	730
1199.7	740
1201.31	734
1202.93	730
1204.55	696
1206.16	704
1207.78	704
1209.39	662
1211.01	676
1212.62	636
1214.24	678
1215.85	650
1217.46	624
1219.08	642
1220.69	646
1222.3	654
1223.91	654
1225.53	604
1227.14	634
1228.75	594
1230.36	606
1231.97	594
1233.58	584
1235.19	592
1236.8	596
1238.41	576
1240.02	570
1241.63	592
1243.23	586
1244.84	580
1246.45	582
1248.06	594
1249.67	554
1251.27	558
1252.88	580
1254.48	578
1256.09	556
1257.7	600
1259.3	574
1260.91	584
1262.51	552
1264.12	526
1265.72	578
1267.32	604
1268.93	592
1270.53	592
1272.13	556
1273.73	586
1275.34	558
1276.94	600
1278.54	568
1280.14	576
1281.74	596
1283.35	596
1284.94	584
1286.54	588
1288.15	600
1289.74	612
1291.34	580
1292.94	572
1294.54	594
1296.14	596
1297.74	590
1299.33	586
1300.93	596
1302.53	622
1304.12	602
1305.72	570
1307.32	582
1308.91	610
1310.51	616
1312.1	596
1313.7	618
1315.29	614
1316.89	606
1318.48	574
1320.07	576
1321.67	590
1323.26	586
1324.85	612
1326.45	600
1328.04	588
1329.63	586
1331.22	618
1332.81	638
1334.4	614
1335.99	612
1337.58	614
1339.17	588
1340.77	598
1342.35	618
1343.94	612
1345.53	606
1347.12	592
1348.71	608
1350.3	594
1351.88	606
1353.47	608
1355.06	598
1356.64	612
1358.23	596
1359.82	606
1361.4	612
1362.99	592
1364.57	614
1366.16	604
1367.74	572
1369.33	584
1370.91	594
1372.49	596
1374.08	604
1375.66	602
1377.24	596
1378.82	594
1380.41	586
1381.99	568
1383.57	584
1385.15	564
1386.73	570
1388.31	624
1389.89	566
1391.47	572
1393.05	562
1394.63	566
1396.21	562
1397.79	568
1399.37	582
1400.95	574
1402.52	582
1404.1	582
1405.68	568
1407.25	558
1408.83	564
1410.41	582
1411.98	574
1413.56	592
1415.13	606
1416.71	576
1418.29	592
1419.86	572
1421.43	594
1423.01	594
1424.58	580
1426.15	570
1427.73	548
1429.3	580
1430.87	574
1432.44	598
1434.02	570
1435.59	578
1437.16	596
1438.73	598
1440.3	568
1441.87	582
1443.44	560
1445.01	578
1446.58	602
1448.15	592
1449.72	612
1451.29	588
1452.85	580
1454.42	564
1455.99	604
1457.56	584
1459.12	568
1460.69	596
1462.26	574
1463.82	604
1465.39	582
1466.95	574
1468.52	584
1470.08	588
1471.65	578
1473.21	580
1474.78	586
1476.34	582
1477.9	610
1479.47	574
1481.03	578
1482.59	596
1484.16	628
1485.72	608
1487.28	592
1488.84	584
1490.4	626
1491.96	580
1493.52	576
1495.08	604
1496.64	558
1498.2	608
1499.76	600
1501.32	590
1502.88	586
1504.44	596
1506	586
1507.55	600
1509.11	602
1510.67	608
1512.22	600
1513.78	612
1515.34	572
1516.89	600
1518.45	610
1520.01	596
1521.56	604
1523.11	608
1524.67	628
1526.22	584
1527.78	598
1529.33	572
1530.88	604
1532.44	634
1533.99	638
1535.54	590
1537.09	576
1538.65	594
1540.2	602
1541.75	594
1543.3	600
1544.85	598
1546.4	604
1547.95	618
1549.5	608
1551.05	604
1552.6	594
1554.15	632
1555.7	626
1557.25	630
1558.79	608
1560.34	626
1561.89	616
1563.43	604
1564.98	608
1566.53	594
1568.08	606
1569.62	628
1571.17	576
1572.71	622
1574.26	624
1575.8	618
1577.35	630
1578.89	632
1580.43	596
1581.98	612
1583.52	610
1585.06	628
1586.61	616
1588.15	596
1589.69	600
1591.23	594
1592.77	624
1594.32	606
1595.86	584
1597.4	626
1598.94	602
1600.48	600
1602.02	592
1603.56	600
1605.1	622
1606.64	599.557
1608.18	632.016
1609.71	617.082
1611.25	595.016
1612.79	614.865
1614.33	570.938
1615.86	599.733
1617.4	597.729
1618.94	589.249
1620.47	632.691
1622.01	589.999
1623.55	596.261
1625.08	591.42
1626.62	586.213
1628.15	596.146
1629.69	583.206
1631.22	581.409
1632.75	581.872
1634.29	552.236
1635.82	588.951
1637.35	579.819
1638.89	589.362
1640.42	568.804
1641.95	544.289
1643.48	568.222
1645.02	570.804
1646.55	572.442
1648.08	567.955
1649.61	590.862
1651.14	571.414
1652.67	573.342
1654.2	553.121
1655.73	578.95
1657.26	576.118
1658.79	538.147
1660.32	574.127
1661.84	572.811
1663.37	567.776
1664.9	568.26
1666.43	555.626
1667.96	568.322
1669.48	562.906
1671.01	569.983
1672.54	553.996
1674.06	566.325
1675.59	589.996
1677.11	576.661
1678.64	544.841
1680.16	542.263
1681.69	553.095
1683.21	541.286
1684.74	555.804
1686.26	561.015
1687.79	569.754
1689.31	554.389
1690.83	559.156
1692.35	554.409
1693.88	554.073
1695.4	536.089
1696.92	558.227
1698.44	553.036
1699.96	546.041
1701.48	560.498
1703.01	549.377
1704.53	551.065
1706.05	551.317
1707.57	543.92
1709.09	547.245
1710.6	531.041
1712.12	549.89
1713.64	545.928
1715.16	525.346
1716.68	542.702
1718.2	554.62
1719.71	554.348
1721.23	562.403
1722.75	539.187
1724.27	544.634
1725.78	533.965
1727.3	538.183
1728.81	535.556
1730.33	517.609
1731.84	529.892
1733.36	533.588
1734.88	545.784
1736.39	537.988
1737.9	542.061
1739.42	560.371
1740.93	548.435
1742.44	521.839
1743.96	557.04
1745.47	537.935
1746.98	541.335
1748.49	511.899
1750.01	527.365
1751.52	510.52
1753.03	524.573
1754.54	513.746
1756.05	518.755
1757.56	495.841
1757.63	494
1759.14	482
1760.66	520
1762.18	532
1763.69	516
1765.21	488
1766.72	532
1768.24	526
1769.75	504
1771.27	522
1772.78	522
1774.3	546
1775.81	514
1777.32	528
1778.84	522
1780.35	528
1781.86	528
1783.38	512
1784.89	490
1786.4	534
1787.91	530
1789.42	516
1790.93	518
1792.44	534
1793.95	518
1795.47	516
1796.98	512
1798.48	514
1799.99	536
1801.5	522
1803.01	534
1804.52	512
1806.03	528
1807.54	536
1809.04	536
1810.55	522
1812.06	522
1813.57	506
1815.07	534
1816.58	518
1818.08	518
1819.59	524
1821.09	532
1822.6	530
1824.11	502
1825.61	540
1827.11	510
1828.62	538
1830.12	518
1831.63	526
1833.13	528
1834.63	512
1836.13	524
1837.64	528
1839.14	514
1840.64	540
1842.14	534
1843.64	512
1845.14	518
1846.64	516
1848.14	514
1849.64	514
1851.14	512
1852.64	486
1854.14	536
1855.64	532
1857.14	516
1858.64	498
1860.14	532
1861.64	520
1863.13	510
1864.63	526
1866.13	520
1867.63	532
1869.12	534
1870.62	530
1872.11	528
1873.61	500
1875.1	516
1876.6	544
1878.09	514
1879.59	526
1881.08	536
1882.58	516
1884.07	490
1885.56	502
1887.06	514
1888.55	550
1890.04	510
1891.54	522
1893.03	548
1894.52	518
1896.01	544
1897.5	558
1898.99	522
1900.48	530
1901.97	546
1903.46	534
1904.96	528
1906.44	552
1907.93	530
1909.42	548
1910.91	520
1912.4	540
1913.89	536
1915.38	566
1916.86	542
1918.35	532
1919.84	528
1921.32	528
1922.81	544
1924.3	530
1925.78	536
1927.27	532
1928.76	540
1930.24	532
1931.72	520
1933.21	540
1934.69	526
1936.18	540
1937.66	520
1939.15	510
1940.63	540
1942.11	542
1943.59	538
1945.08	548
1946.56	556
1948.04	546
1949.52	520
1951	532
1952.48	530
1953.97	526
1955.45	556
1956.93	510
1958.41	554
1959.89	520
1961.37	540
1962.85	552
1964.32	514
1965.8	510
1967.28	538
1968.76	538
1970.24	516
1971.71	520
1973.19	538
1974.67	528
1976.15	510
1977.62	518
1979.1	556
1980.57	512
1982.05	536
1983.53	540
1985	548
1986.48	514
1987.95	530
1989.42	570
1990.9	524
1992.37	542
1993.85	554
1995.32	536
1996.79	544
1998.26	540
1999.74	536
2001.21	528
2002.68	524
2004.15	528
2005.62	514
2007.09	510
2008.56	526
2010.03	520
2011.51	572
2012.98	536
2014.44	516
2015.92	566
2017.38	534
2018.85	564
2020.32	512
2021.79	554
2023.26	546
2024.73	554
2026.19	544
2027.66	554
2029.13	550
2030.59	538
2032.06	562
2033.53	544
2034.99	558
2036.46	580
2037.92	516
2039.39	542
2040.85	560
2042.32	526
2043.78	538
2045.25	508
2046.71	536
2048.17	570
2049.64	564
2051.1	548
2052.56	560
2054.02	562
2055.49	532
2056.95	548
2058.41	568
2059.87	540
2061.33	540
2062.79	554
2064.25	542
2065.71	552
2067.17	558
2068.63	552
2070.09	536
2071.55	548
2073.01	560
2074.47	566
2075.93	548
2077.39	550
2078.84	556
2080.3	536
2081.76	566
2083.22	566
2084.67	534
2086.13	540
2087.59	550
2089.04	542
2090.5	528
2091.95	550
2093.41	534
2094.86	548
2096.32	542
2097.77	536
2099.23	572
2100.68	568
2102.13	546
2103.59	570
2105.04	554
2106.49	532
2107.95	550
2109.4	552
2110.85	530
2112.3	536
2113.75	518
2115.21	542
2116.66	542
2118.11	558
2119.56	526
2121.01	554
2122.46	550
2123.91	564
2125.36	540
2126.8	536
2128.25	534
2129.7	556
2131.15	540
2132.6	538
2134.05	552
2135.49	572
2136.94	544
2138.39	528
2139.83	568
2141.28	550
2142.73	574
2144.17	542
2145.62	562
2147.06	530
2148.51	556
2149.95	542
2151.4	530
2152.84	544
2154.29	552
2155.73	544
2157.17	556
2158.62	546
2160.06	534
2161.5	556
2162.95	566
2164.39	558
2165.83	562
2167.27	574
2168.71	532
2170.15	532
2171.59	576
2173.04	554
2174.48	560
2175.92	556
2177.36	542
2178.79	566
2180.24	570
2181.67	534
2183.11	566
2184.55	550
2185.99	570
2187.43	554
2188.86	566
2190.3	570
2191.74	562
2193.18	532
2194.61	538
2196.05	564
2197.49	554
2198.92	562
2200.36	556
2201.79	554
2203.23	542
2204.66	568
2206.1	558
2207.53	560
2208.97	542
2210.4	554
2211.83	548
2213.27	550
2214.7	552
2216.13	548
2217.57	530
2219	570
2220.43	558
2221.86	538
2223.29	536
2224.72	578
2226.15	548
2227.59	524
2229.02	542
2230.45	528
2231.88	538
2233.31	540
2234.74	532
2236.16	538
2237.59	536
2239.02	540
2240.45	544
2241.88	542
2243.31	548
2244.73	546
2246.16	528
2247.59	538
2249.01	560
2250.44	542
2251.87	534
2253.29	570
2254.72	526
2256.15	542
2257.57	536
2259	554
2260.42	532
2261.84	528
2263.27	568
2264.69	512
2266.12	548
2267.54	546
2268.96	530
2270.39	540
2271.81	546
2273.23	546
2274.65	540
2276.07	536
2277.5	556
2278.92	538
2280.34	554
2281.76	532
2283.18	534
2284.6	544
2286.02	560
2287.44	538
2288.86	528
2290.28	550
2291.7	536
2293.12	586
2294.54	570
2295.95	590
2297.37	566
2298.79	584
2300.21	562
2301.62	572
2303.04	574
2304.46	584
2305.88	586
2307.29	592
2308.71	568
2310.12	610
2311.54	550
2312.95	592
2314.37	590
2315.78	554
2317.2	580
2318.61	572
2320.02	582
2321.44	590
2322.85	592
2324.27	574
2325.68	604
2327.09	618
2328.5	624
2329.92	616
2331.33	600
2332.74	600
2334.15	574
2335.56	584
2336.97	610
2338.38	590
2339.79	598
2341.2	596
2342.61	620
2344.02	618
2345.43	602
2346.84	616
2348.25	634
2349.66	614
2351.07	626
2352.48	628
2353.88	616
2355.29	628
2356.7	650
2358.11	622
2359.51	642
2360.92	638
2362.32	678
2363.73	670
2365.14	640
2366.54	654
2367.95	670
2369.35	634
2370.76	662
2372.16	664
2373.57	652
2374.97	648
2376.37	646
2377.78	658
2379.18	676
2380.58	678
2381.99	682
2383.39	682
2384.79	682
2386.19	676
2387.59	684
2389	694
2390.4	664
2391.8	668
2393.2	690
2394.6	692
2396	716
2397.4	686
2398.8	710
2400.2	700
2401.6	668
2403	682
2404.39	694
2405.79	674
2407.19	708
2408.59	702
2409.99	718
2411.38	682
2412.78	710
2414.18	692
2415.57	722
2416.97	690
2418.37	684
2419.76	728
2421.16	720
2422.55	718
2423.95	714
2425.34	684
2426.74	738
2428.13	724
2429.53	718
2430.92	728
2432.31	738
2433.71	730
2435.1	702
2436.49	728
2437.89	724
2439.28	696
2440.67	710
2442.06	710
2443.45	714
2444.85	708
2446.24	710
2447.63	708
2449.02	682
2450.41	722
2451.8	724
2453.19	722
2454.58	676
2455.97	674
2457.36	742
2458.75	728
2460.13	722
2461.52	706
2462.91	714
2464.3	716
2465.69	706
2467.07	744
2468.46	720
2469.85	716
2471.24	718
2472.62	686
2474.01	714
2475.39	700
2476.78	716
2478.16	714
2479.55	722
2480.94	712
2482.32	718
2483.7	698
2485.09	706
2486.47	698
2487.85	682
2489.24	710
2490.62	724
2492	718
2493.39	708
2494.77	720
2496.15	718
2497.53	720
2498.92	696
2500.3	688
2501.68	710
2503.06	698
2504.44	714
2505.82	688
2507.2	704
2508.58	704
2509.96	716
2511.34	702
2512.72	694
2514.1	700
2515.48	714
2516.85	712
2518.23	706
2519.61	708
2520.99	718
2522.37	696
2523.74	722
2525.12	686
2526.5	716
2527.87	738
2529.25	724
2530.63	706
2532	696
2533.38	724
2534.75	708
2536.13	696
2537.5	684
2538.88	674
2540.25	682
2541.62	714
2543	688
2544.37	722
2545.75	728
2547.12	750
2548.49	716
2549.86	754
2551.24	732
2552.61	718
2553.98	732
2555.35	746
2556.72	742
2558.09	698
2559.47	752
2560.84	702
2562.21	732
2563.57	720
2564.95	736
2566.32	714
2567.68	714
2569.05	710
2570.42	718
2571.79	728
2573.16	732
2574.53	692
2575.9	710
2577.26	716
2578.63	730
2580	714
2581.36	716
2582.73	702
2584.1	752
2585.46	726
2586.83	694
2588.19	704
2589.56	752
2590.93	760
2592.29	750
2593.66	732
2595.02	762
2596.39	710
2597.75	720
2599.11	666
2600.47	740
2601.84	734
2603.2	746
2604.56	740
2605.93	730
2607.29	716
2608.65	746
2610.01	720
2611.38	724
2612.74	748
2614.1	742
2615.46	738
2616.82	774
2618.18	720
2619.54	730
2620.9	752
2622.26	760
2623.62	738
2624.98	746
2626.34	732
2627.69	744
2629.05	752
2630.41	758
2631.77	752
2633.13	752
2634.48	740
2635.84	736
2637.2	776
2638.56	710
2639.91	730
2641.27	758
2642.62	766
2643.98	754
2645.33	762
2646.69	752
2648.05	756
2649.4	762
2650.75	768
2652.11	738
2653.46	754
2654.82	754
2656.17	762
2657.52	734
2658.88	758
2660.23	726
2661.58	790
2662.94	748
2664.29	746
2665.64	786
2666.99	764
2668.34	780
2669.69	770
2671.04	762
2672.39	764
2673.75	764
2675.09	740
2676.45	748
2677.79	760
2679.14	744
2680.49	780
2681.84	746
2683.19	732
2684.54	746
2685.89	736
2687.24	732
2688.58	754
2689.93	758
2691.28	756
2692.63	750
2693.97	736
2695.32	738
2696.67	758
2698.01	754
2699.36	742
2700.7	774
2702.05	786
2703.39	806
2704.74	770
2706.08	778
2707.43	750
2708.77	770
2710.12	760
2711.46	790
2712.8	794
2714.15	786
2715.49	786
2716.83	754
2718.17	744
2719.52	776
2720.86	778
2722.2	800
2723.54	782
2724.88	788
2726.22	782
2727.57	802
2728.91	774
2730.25	790
2731.59	772
2732.93	780
2734.27	788
2735.61	790
2736.95	780
2738.28	758
2739.62	778
2740.96	794
2742.3	776
2743.64	798
2744.98	798
2746.31	798
2747.65	792
2748.99	792
2750.33	776
2751.66	798
2753	788
2754.33	786
2755.67	794
2757.01	782
2758.34	818
2759.68	810
2761.01	788
2762.35	802
2763.68	804
2765.01	816
2766.35	846
2767.68	786
2769.02	810
2770.35	820
2771.68	804
2773.02	816
2774.35	810
2775.68	826
2777.01	826
2778.35	818
2779.68	832
2781.01	806
2782.34	848
2783.67	828
2785	838
2786.33	804
2787.66	772
2788.99	832
2790.32	804
2791.65	806
2792.98	846
2794.31	848
2795.64	828
2796.97	826
2798.3	810
2799.62	832
2800.95	818
2802.28	844
2803.61	820
2804.93	868
2806.26	836
2807.59	872
2808.91	850
2810.24	836
2811.57	846
2812.89	850
2814.22	832
2815.54	848
2816.87	838
2818.19	862
2819.52	868
2820.84	828
2822.17	836
2823.49	858
2824.81	862
2826.14	824
2827.46	874
2828.78	860
2830.11	870
2831.43	896
2832.75	864
2834.07	832
2835.39	878
2836.72	884
2838.04	858
2839.36	870
2840.68	866
2842	856
2843.32	898
2844.64	856
2845.96	890
2847.28	890
2848.6	862
2849.92	894
2851.24	886
2852.56	840
2853.88	876
2855.19	868
2856.51	884
2857.83	870
2859.15	834
2860.46	906
2861.78	904
2863.1	864
2864.42	904
2865.73	880
2867.05	882
2868.36	898
2869.68	906
2871	938
2872.31	864
2873.63	888
2874.94	898
2876.26	892
2877.57	940
2878.88	900
2880.2	874
2881.51	878
2882.82	924
2884.14	900
2885.45	936
2886.76	910
2888.08	910
2889.39	898
2890.7	910
2892.01	924
2893.33	914
2894.64	928
2895.95	944
2897.26	914
2898.57	914
2899.88	914
2901.19	928
2902.5	940
2903.81	932
2905.12	904
2906.43	894
2907.74	942
2909.05	916
2910.35	938
2911.66	950
2912.97	966
2914.28	928
2915.59	948
2916.89	926
2918.2	931.99
2919.51	951.836
2920.82	935.726
2922.12	942.293
2923.43	931.523
2924.73	951.391
2926.04	929.518
2927.35	953.259
2928.65	949.648
2929.96	951.217
2931.26	949.2
2932.57	947.841
2933.87	937.697
2935.17	927.546
2936.48	984.685
2937.78	971.504
2939.09	949.724
2940.39	938.906
2941.69	963.844
2943	963.457
2944.3	976.849
2945.6	959.916
2946.9	990.515
2948.2	968.182
2949.51	979.035
2950.81	973.746
2952.11	963.286
2953.41	985.023
2954.71	968.53
2956.01	957.622
2957.31	959.06
2958.61	974.501
2959.91	975.726
2961.21	979.941
2962.51	980.587
2963.81	967.44
2965.11	1018.39
2966.41	976.581
2967.71	987.962
2969.01	1004.33
2970.3	997.418
2971.6	982.588
2972.9	1009.42
2974.2	1005.32
2975.49	981.426
2976.79	1002.15
2978.09	1010.29
2979.39	1010.93
2980.68	1009.36
2981.98	989.735
2983.27	1016.16
2984.57	1031.95
2985.86	989.302
2987.16	1003.79
2988.45	1003.42
2989.75	1020.83
2991.04	993.974
2992.34	1018.9
2993.63	1010.45
2994.93	1031.57
2996.22	1010.59
2997.51	1006.28
2998.81	1013.87
3000.1	1023.89
3001.39	1016.77
3002.68	1012.98
3003.98	1065.32
3005.27	1049.4
3006.56	1045.48
3007.85	1035.14
3009.14	1034.37
3010.43	1041.51
3011.72	1047.74
3013.01	1058.32
3014.31	1076.16
3015.59	1052.57
3016.89	1025.64
3018.18	1044.94
3019.47	1066.35
3020.75	1024.29
3022.04	1054.21
3023.33	1080.36
3024.62	1075.67
3025.91	1064.36
3027.2	1081.45
3028.48	1050.7
3029.77	1074.43
3031.06	1085.08
3032.35	1064.44
3033.64	1062.33
3034.92	1067.97
3036.21	1072.79
3037.5	1086.84
3038.78	1069.74
3040.07	1069.94
3041.35	1103.82
3042.64	1080.65
3043.92	1079.73
3045.21	1088.19
3046.49	1072.37
3047.78	1093.9
3048.11	1104
3049.4	1092
3050.69	1090
3051.98	1084
3053.27	1156
3054.56	1096
3055.85	1088
3057.14	1086
3058.43	1118
3059.72	1130
3061.01	1096
3062.29	1088
3063.58	1140
3064.87	1138
3066.16	1118
3067.44	1092
3068.73	1134
3070.02	1102
3071.31	1124
3072.59	1114
3073.88	1132
3075.16	1126
3076.45	1116
3077.73	1132
3079.02	1142
3080.31	1160
3081.59	1152
3082.87	1130
3084.16	1138
3085.44	1142
3086.73	1138
3088.01	1116
3089.29	1156
3090.58	1154
3091.86	1170
3093.14	1152
3094.43	1088
3095.71	1188
3096.99	1172
3098.27	1184
3099.55	1166
3100.84	1176
3102.12	1160
3103.4	1166
3104.68	1188
3105.96	1164
3107.24	1152
3108.52	1160
3109.8	1162
3111.08	1176
3112.36	1182
3113.64	1156
3114.92	1184
3116.2	1170
3117.48	1134
3118.75	1220
3120.03	1172
3121.31	1184
3122.59	1172
3123.87	1200
3125.14	1204
3126.42	1218
3127.7	1198
3128.97	1204
3130.25	1240
3131.53	1220
3132.8	1244
3134.08	1224
3135.35	1262
3136.63	1210
3137.9	1276
3139.18	1238
3140.45	1212
3141.73	1238
3143	1264
3144.28	1234
3145.55	1256
3146.82	1220
3148.1	1258
3149.37	1248
3150.64	1222
3151.92	1256
3153.19	1230
3154.46	1276
3155.73	1270
3157.01	1260
3158.28	1252
3159.55	1256
3160.82	1280
3162.09	1280
3163.36	1296
3164.63	1272
3165.9	1278
3167.17	1286
3168.44	1272
3169.71	1238
3170.98	1258
3172.25	1266
3173.52	1262
3174.79	1304
3176.06	1334
3177.32	1262
3178.59	1266
3179.86	1266
3181.13	1274
3182.4	1286
3183.66	1308
3184.93	1290
3186.2	1330
3187.46	1290
3188.73	1310
3190	1306
3191.26	1326
3192.53	1310
3193.79	1302
3195.06	1310
3196.32	1326
3197.59	1286
3198.85	1332
3200.12	1312
3201.38	1350
3202.65	1320
3203.91	1306
3205.17	1310
3206.44	1352
3207.7	1314
3208.96	1342
3210.23	1336
3211.49	1330
3212.75	1316
3214.01	1288
3215.27	1342
3216.54	1324
3217.8	1324
3219.06	1350
3220.32	1364
3221.58	1348
3222.84	1308
3224.1	1362
3225.36	1328
3226.62	1370
3227.88	1340
3229.14	1360
3230.4	1356
3231.66	1380
3232.92	1368
3234.18	1348
3235.44	1390
3236.69	1354
3237.95	1370
3239.21	1350
3240.47	1404
3241.72	1410
3242.98	1394
3244.24	1404
3245.5	1314
3246.75	1360
3248.01	1366
3249.26	1352
3250.52	1372
3251.78	1382
3253.03	1390
3254.29	1408
3255.54	1406
3256.8	1382
3258.05	1388
3259.3	1386
3260.56	1410
3261.81	1414
3263.07	1414
3264.32	1422
3265.57	1408
3266.83	1412
3268.08	1432
3269.33	1432
3270.58	1420
3271.84	1428
3273.09	1432
3274.34	1426
3275.59	1426
3276.84	1462
3278.09	1470
3279.35	1464
3280.6	1444
3281.85	1428
3283.1	1460
3284.35	1494
3285.6	1434
3286.85	1440
3288.1	1466
3289.35	1448
3290.59	1474
3291.84	1466
3293.09	1490
3294.34	1474
3295.59	1454
3296.84	1484
3298.08	1534
3299.33	1478
3300.58	1468
3301.83	1500
3303.07	1486
3304.32	1558
3305.57	1456
3306.81	1522
3308.06	1468
3309.3	1478
3310.55	1532
3311.79	1536
3313.04	1550
3314.29	1546
3315.53	1526
3316.77	1540
3318.02	1548
3319.26	1570
3320.51	1520
3321.75	1562
3322.99	1544
3324.24	1478
3325.48	1530
3326.72	1548
3327.97	1548
3329.21	1598
3330.45	1568
3331.69	1526
3332.93	1544
3334.18	1540
3335.42	1562
3336.66	1554
3337.9	1578
3339.14	1542
3340.38	1576
3341.62	1584
3342.86	1540
3344.1	1548
3345.34	1566
3346.58	1566
3347.82	1596
3349.06	1582
3350.3	1614
3351.54	1612
3352.77	1592
3354.01	1566
3355.25	1578
3356.49	1580
3357.73	1570
3358.96	1596
3360.2	1528
3361.44	1576
3362.67	1560
3363.91	1586
3365.15	1566
3366.38	1548
3367.62	1640
3368.85	1568
3370.09	1634
3371.33	1612
3372.56	1594
3373.8	1626
3375.03	1592
3376.26	1606
3377.5	1580
3378.73	1656
3379.97	1604
3381.2	1582
3382.43	1626
3383.67	1612
3384.9	1630
3386.13	1672
3387.37	1638
3388.6	1590
3389.83	1626
3391.06	1648
3392.29	1636
3393.52	1650
3394.76	1622
3395.99	1628
3397.22	1634
3398.45	1654
3399.68	1676
3400.91	1660
3402.14	1664
3403.37	1692
3404.6	1658
3405.83	1652
3407.06	1644
3408.29	1666
3409.51	1680
3410.74	1646
3411.97	1696
3413.2	1696
3414.43	1712
3415.66	1638
3416.88	1720
3418.11	1738
3419.34	1720
3420.56	1728
3421.79	1706
3423.02	1720
3424.24	1690
3425.47	1740
3426.7	1708
3427.92	1740
3429.15	1724
3430.37	1748
3431.6	1724
3432.82	1746
3434.05	1778
3435.27	1756
3436.5	1730
3437.72	1764
3438.94	1764
3440.17	1754
3441.39	1762
3442.61	1754
3443.84	1764
3445.06	1788
3446.28	1798
3447.51	1776
3448.73	1784
3449.95	1770
3451.17	1790
3452.39	1816
3453.61	1784
3454.83	1790
3456.06	1812
3457.28	1778
3458.5	1772
3459.72	1812
3460.94	1820
3462.16	1800
3463.38	1816
3464.6	1834
3465.82	1816
3467.04	1770
3468.25	1794
3469.47	1782
3470.69	1792
3471.91	1850
3473.13	1804
3474.34	1844
3475.56	1820
3476.78	1800
3478	1868
3479.21	1810
3480.43	1836
3481.65	1860
3482.86	1842
3484.08	1850
3485.3	1844
3486.51	1838
3487.73	1836
3488.94	1880
3490.16	1818
3491.37	1832
3492.59	1856
3493.8	1852
3495.02	1862
3496.23	1830
3497.45	1834
3498.66	1834
3499.87	1892
3501.09	1892
3502.3	1914
3503.51	1860
3504.72	1902
3505.94	1872
3507.15	1878
3508.36	1880
3509.57	1822
3510.79	1888
3512	1878
3513.21	1842
3514.42	1858
3515.63	1860
3516.84	1874
3518.05	1878
3519.26	1826
3520.47	1882
3521.68	1882
3522.89	1876
3524.1	1854
3525.31	1880
3526.52	1888
3527.73	1842
3528.94	1870
3530.14	1876
3531.35	1876
3532.56	1884
3533.77	1872
3534.98	1868
3536.18	1902
3537.39	1910
3538.6	1910
3539.81	1892
3541.01	1910
3542.22	1918
3543.42	1914
3544.63	1882
3545.84	1906
3547.04	1910
3548.25	1952
3549.45	1900
3550.66	1928
3551.86	1926
3553.07	1974
3554.27	1896
3555.47	1908
3556.68	1916
3557.88	1876
3559.09	1962
3560.29	1904
3561.49	1940
3562.7	1966
3563.9	1962
3565.1	1968
3566.3	1996
3567.51	1958
3568.71	1946
3569.91	1980
3571.11	1984
3572.31	1980
3573.51	1980
3574.71	1972
3575.92	1990
3577.12	1974
3578.32	2008
3579.52	1990
3580.72	1980
3581.92	2062
3583.12	2004
3584.31	2016
3585.51	2022
3586.71	2024
3587.91	2018
3589.11	2018
3590.31	2056
3591.51	2090
3592.71	2048
3593.9	2012
3595.1	2022
3596.3	2060
3597.49	1994
3598.69	2046
3599.89	2076
3601.08	2004
3602.28	2090
3603.48	2066
3604.67	2082
3605.87	2068
3607.06	2086
3608.26	2088
3609.45	2098
3610.65	2060
3611.84	2094
3613.04	2010
3614.23	2058
3615.43	2094
3616.62	2142
3617.82	2134
3619.01	2110
3620.2	2114
3621.39	2102
3622.59	2128
3623.78	2124
3624.97	2122
3626.17	2160
3627.36	2124
3628.55	2128
3629.74	2150
3630.93	2112
3632.12	2132
3633.31	2112
3634.51	2158
3635.7	2152
3636.89	2114
3638.08	2146
3639.27	2156
3640.46	2154
3641.65	2172
3642.84	2172
3644.03	2138
3645.22	2146
3646.4	2142
3647.59	2126
3648.78	2136
3649.97	2196
3651.16	2164
3652.35	2146
3653.53	2176
3654.72	2150
3655.91	2126
3657.1	2182
3658.28	2162
3659.47	2150
3660.66	2174
3661.84	2158
3663.03	2112
3664.21	2116
3665.4	2152
3666.59	2154
3667.77	2210
3668.96	2128
3670.14	2150
3671.33	2150
3672.51	2174
3673.69	2176
3674.88	2168
3676.06	2194
3677.25	2152
3678.43	2168
3679.61	2130
3680.8	2184
3681.98	2184
3683.16	2128
3684.34	2178
3685.53	2146
3686.71	2164
3687.89	2184
3689.07	2180
3690.25	2196
3691.44	2214
3692.62	2166
3693.8	2146
3694.98	2186
3696.16	2162
3697.34	2210
3698.52	2198
3699.7	2204
3700.88	2184
3702.06	2174
3703.24	2210
3704.42	2256
3705.6	2234
3706.78	2228
3707.96	2194
3709.13	2230
3710.31	2224
3711.49	2218
3712.67	2190
3713.85	2238
3715.02	2232
3716.2	2216
3717.38	2260
3718.56	2286
3719.73	2232
3720.91	2314
3722.08	2284
3723.26	2282
3724.44	2300
3725.61	2274
3726.79	2276
3727.96	2260
3729.14	2276
3730.31	2242
3731.49	2280
3732.66	2338
3733.84	2332
3735.01	2258
3736.18	2284
3737.36	2316
3738.53	2304
3739.7	2346
3740.88	2324
3742.05	2396
3743.22	2324
3744.4	2352
3745.57	2302
3746.74	2324
3747.91	2326
3749.09	2334
3750.26	2372
3751.43	2318
3752.6	2344
3753.77	2406
3754.94	2338
3756.11	2348
3757.28	2420
3758.45	2380
3759.62	2318
3760.79	2376
3761.96	2422
3763.13	2386
3764.3	2394
3765.47	2376
3766.64	2444
3767.81	2382
3768.98	2386
3770.14	2380
3771.31	2408
3772.48	2382
3773.65	2384
3774.82	2414
3775.98	2420
3777.15	2450
3778.32	2434
3779.48	2436
3780.65	2416
3781.82	2404
3782.98	2446
3784.15	2432
3785.32	2432
3786.48	2434
3787.65	2438
3788.81	2454
3789.98	2422
3791.14	2408
3792.3	2444
3793.47	2460
3794.63	2428
3795.8	2410
3796.96	2458
3798.13	2422
3799.29	2420
3800.45	2434
3801.61	2468
3802.78	2462
3803.94	2450
3805.1	2388
3806.27	2390
3807.43	2424
3808.59	2452
3809.75	2480
3810.91	2426
3812.07	2438
3813.24	2450
3814.4	2446
3815.56	2432
3816.72	2386
3817.88	2426
3819.04	2462
3820.2	2470
3821.36	2452
3822.52	2398
3823.68	2436
3824.84	2452
3826	2418
3827.15	2426
3828.31	2490
3829.47	2460
3830.63	2452
3831.79	2388
3832.95	2466
3834.1	2408
3835.26	2434
3836.42	2436
3837.58	2486
3838.73	2452
3839.89	2486
3841.04	2404
3842.2	2460
3843.36	2442
3844.51	2462
3845.67	2518
3846.83	2468
3847.98	2458
3849.14	2494
3850.29	2472
3851.45	2500
3852.6	2460
3853.76	2470
3854.91	2454
3856.06	2498
3857.22	2530
3858.37	2480
3859.52	2468
3860.68	2526
3861.83	2472
3862.98	2516
3864.14	2506
3865.29	2486
3866.44	2524
3867.59	2544
3868.75	2550
3869.9	2530
3871.05	2494
3872.2	2546
3873.35	2582
3874.5	2564
3875.65	2568
3876.8	2552
3877.95	2602
3879.1	2550
3880.25	2574
3881.4	2586
3882.55	2584
3883.7	2598
3884.85	2542
3886	2620
3887.15	2612
3888.3	2610
3889.45	2592
3890.6	2656
3891.75	2606
3892.89	2636
3894.04	2586
3895.19	2634
3896.34	2618
3897.48	2634
3898.63	2672
3899.78	2636
3900.92	2670
3902.07	2654
3903.22	2620
3904.36	2652
3905.51	2652
3906.65	2664
3907.8	2658
3908.94	2622
3910.09	2676
3911.23	2660
3912.38	2658
3913.52	2720
3914.67	2732
3915.81	2700
3916.96	2714
3918.1	2654
3919.24	2682
3920.39	2704
3921.53	2684
3922.67	2690
3923.82	2682
3924.96	2678
3926.1	2692
3927.24	2670
3928.39	2674
3929.53	2716
3930.67	2728
3931.81	2722
3932.95	2718
3934.09	2744
3935.24	2702
3936.38	2708
3937.52	2742
3938.66	2776
3939.8	2710
3940.94	2758
3942.08	2684
3943.22	2714
3944.36	2722
3945.5	2700
3946.63	2696
3947.77	2770
3948.91	2688
3950.05	2714
3951.19	2764
3952.33	2684
3953.47	2712
3954.6	2744
3955.74	2730
3956.88	2738
3958.02	2720
3959.15	2682
3960.29	2702
3961.43	2704
3962.56	2756
3963.7	2702
3964.84	2722
3965.97	2736
3967.11	2728
3968.24	2752
3969.38	2720
3970.51	2740
3971.65	2742
3972.78	2736
3973.92	2750
3975.05	2736
3976.19	2666
3977.32	2738
3978.45	2786
3979.59	2736
3980.72	2776
3981.85	2724
3982.99	2720
3984.12	2810
3985.25	2758
3986.39	2774
3987.52	2800
3988.65	2782
3989.78	2794
3990.91	2748
3992.05	2816
3993.18	2794
3994.31	2786
3995.44	2768
3996.57	2766
3997.7	2796
3998.83	2818
3999.96	2806
