#Acq. time (s)=	20
#Accumulations=	2
#Range (cm-¹)=	50...4000
#Windows=	3
#Autofocus=	Off
#AutoExposure=	Off
#Spike filter=	Multiple accum.
#Delay time (s)=	0
#Binning=	1
#Readout mode=	Signal
#DeNoise=	Off
#ICS correction=	Off
#Dark correction=	Off
#Inst. Process=	Off
#Instrument=	LabRAM HR Evol
#Detector=	Syncerity OE
#Objective=	x100_VIS
#Grating=	600 (500nm)
#ND Filter=	100%
#Laser=	532nm_Edge
#Hole=	100.021
#Range=	Visible
#Project=	Omar
#Sample=	
#Site=	21-09-22
#Title=	 CN-Sastre
#Remark=	
#Date=	21.09.2022 14:08
#Acquired=	21.09.2022 14:08:07
51.0918	34
52.9354	50
54.7807	48
56.6235	58
58.4681	84
60.3102	136
62.154	184
63.9954	256
65.8385	308
67.6792	380
69.5216	476
71.3615	630
73.2032	818
75.0424	1000
76.8834	1048
78.7218	1182
80.5621	1366
82.3998	1540
84.2393	1598
86.0764	1736
87.9152	1788
89.7515	1846
91.5874	1860
93.4251	1816
95.2603	1772
97.0973	1804
98.9318	1748
100.766	1768
102.602	1804
104.435	1870
106.27	1892
108.103	1834
109.936	1848
111.77	1806
113.601	1882
115.433	1882
117.266	1858
119.096	1846
120.926	1852
122.758	1858
124.588	1782
126.417	1782
128.246	1808
130.076	1808
131.904	1796
133.732	1760
135.561	1812
137.388	1852
139.215	1856
141.041	1750
142.869	1772
144.695	1766
146.52	1814
148.345	1770
150.171	1784
151.995	1768
153.819	1784
155.642	1742
157.465	1756
159.29	1728
161.112	1738
162.934	1792
164.756	1730
166.577	1756
168.398	1732
170.219	1724
172.041	1726
173.861	1736
175.68	1678
177.499	1694
179.318	1718
181.137	1652
182.955	1634
184.772	1688
186.592	1706
188.409	1668
190.225	1656
192.042	1702
193.857	1610
195.673	1688
197.488	1684
199.303	1660
201.118	1650
202.932	1662
204.746	1630
206.559	1686
208.372	1638
210.185	1652
211.997	1640
213.809	1600
215.621	1562
217.432	1580
219.243	1580
221.054	1622
222.864	1606
224.674	1586
226.483	1598
228.293	1588
230.101	1574
231.91	1610
233.718	1594
235.524	1624
237.331	1568
239.138	1630
240.945	1596
242.751	1560
244.557	1568
246.363	1604
248.168	1634
249.971	1598
251.776	1620
253.58	1620
255.384	1614
257.188	1586
258.991	1594
260.792	1566
262.594	1596
264.396	1634
266.198	1578
268	1586
269.799	1582
271.599	1600
273.4	1570
275.2	1592
277	1600
278.797	1600
280.596	1562
282.395	1592
284.193	1588
285.989	1628
287.786	1586
289.584	1578
291.378	1618
293.175	1622
294.971	1640
296.765	1604
298.561	1572
300.356	1614
302.148	1646
303.943	1626
305.737	1572
307.529	1652
309.322	1638
311.115	1610
312.906	1632
314.698	1626
316.49	1626
318.28	1648
320.071	1654
321.86	1658
323.651	1624
325.441	1610
327.229	1658
329.019	1706
330.806	1666
332.595	1672
334.381	1648
336.17	1634
337.955	1616
339.743	1662
341.528	1680
343.315	1658
345.099	1674
346.885	1642
348.669	1652
350.455	1616
352.238	1624
354.022	1642
355.805	1642
357.589	1622
359.371	1696
361.154	1674
362.935	1646
364.718	1702
366.498	1684
368.278	1650
370.06	1670
371.839	1706
373.62	1712
375.398	1696
377.177	1712
378.956	1704
380.734	1692
382.513	1738
384.29	1730
386.067	1706
387.845	1732
389.621	1756
391.396	1734
393.173	1738
394.948	1730
396.723	1728
398.499	1688
400.273	1698
402.046	1684
403.819	1710
405.594	1692
407.366	1712
409.138	1710
410.91	1710
412.683	1718
414.454	1710
416.225	1694
417.995	1682
419.768	1674
421.537	1678
423.307	1688
425.076	1702
426.844	1710
428.615	1710
430.382	1732
432.15	1716
433.917	1666
435.684	1688
437.451	1674
439.219	1694
440.985	1706
442.751	1742
444.516	1736
446.281	1698
448.045	1722
449.81	1724
451.574	1736
453.337	1722
455.102	1728
456.865	1712
458.628	1738
460.39	1740
462.152	1694
463.913	1746
465.674	1718
467.435	1734
469.196	1708
470.956	1722
472.716	1750
474.475	1690
476.234	1702
477.993	1744
479.752	1748
481.51	1684
483.268	1744
485.025	1660
486.782	1684
488.539	1676
490.295	1676
492.051	1682
493.807	1620
495.563	1652
497.316	1628
499.07	1638
500.825	1600
502.579	1628
504.333	1624
506.086	1672
507.839	1600
509.592	1646
511.344	1660
513.094	1654
514.846	1674
516.597	1620
518.349	1700
520.099	1670
521.85	1660
523.598	1724
525.347	1756
527.097	1802
528.846	1792
530.595	1854
532.341	1912
534.089	1910
535.837	1952
537.584	2000
539.329	2080
541.076	2072
542.822	2110
544.568	2224
546.312	2198
548.057	2234
549.802	2206
551.545	2254
553.289	2282
555.033	2314
556.775	2312
558.518	2326
560.261	2262
562.002	2274
563.744	2286
565.487	2258
567.226	2284
568.968	2258
570.709	2222
572.447	2200
574.188	2128
575.926	2178
577.665	2138
579.405	2068
581.142	2066
582.88	2090
584.617	2060
586.355	2004
588.091	1990
589.828	1880
591.565	1944
593.3	1940
595.036	1982
596.77	1924
598.506	1938
600.239	1872
601.974	1850
603.707	1800
605.442	1812
607.174	1818
608.905	1786
610.639	1754
612.37	1768
614.103	1720
615.833	1662
617.565	1694
619.295	1652
621.026	1660
622.755	1606
624.484	1604
626.215	1624
627.943	1578
629.67	1548
631.4	1576
633.127	1572
634.856	1570
636.582	1574
638.308	1496
640.036	1476
641.762	1486
643.487	1462
645.214	1476
646.938	1466
648.662	1456
650.386	1404
652.112	1372
653.835	1390
655.558	1354
657.282	1352
659.005	1334
660.726	1328
662.448	1328
664.171	1266
665.892	1290
667.613	1244
669.333	1254
671.053	1190
672.774	1178
674.494	1172
676.213	1196
677.931	1164
679.649	1190
681.369	1114
683.087	1126
684.804	1122
686.521	1078
688.238	1112
689.954	1082
691.67	1104
693.386	1042
695.103	1044
696.818	1040
698.533	1000
700.247	962
701.961	1010
703.675	960
705.389	970
707.102	968
708.814	956
710.527	942
712.239	952
713.951	906
715.662	932
717.373	886
719.084	872
720.795	914
722.505	892
724.215	950
725.924	874
727.633	860
729.342	898
731.051	858
732.759	878
734.467	876
736.174	874
737.882	862
739.589	850
741.295	908
742.999	884
744.705	858
746.411	900
748.116	870
749.821	874
751.526	888
753.23	902
754.934	916
756.636	914
758.34	874
760.043	880
761.745	904
763.448	924
765.148	944
766.85	920
768.551	908
770.252	940
771.953	866
773.652	920
775.352	942
777.052	894
778.751	936
780.448	950
782.147	942
783.846	918
785.544	952
787.24	902
788.938	932
790.635	944
792.33	938
794.027	926
795.723	892
797.417	912
799.113	934
800.808	878
802.501	902
804.196	834
805.89	892
807.582	862
809.276	848
810.968	860
812.661	888
814.354	832
816.044	844
817.736	800
819.426	834
821.118	810
822.807	780
824.498	794
826.186	760
827.877	784
829.565	746
831.254	744
832.942	748
834.631	726
836.317	718
838.006	688
839.692	738
841.38	694
843.065	694
844.752	686
846.437	694
848.123	728
849.808	638
851.493	674
853.177	674
854.86	660
856.545	684
858.228	714
859.912	672
861.594	682
863.276	694
864.959	690
866.64	656
868.321	660
870.003	660
871.683	672
873.363	658
875.044	674
876.723	640
878.402	706
880.083	676
881.761	694
883.439	668
885.116	666
886.795	696
888.472	700
890.149	704
891.825	696
893.503	676
895.179	722
896.854	708
898.529	730
900.204	718
901.88	754
903.555	736
905.228	754
906.902	758
908.575	750
910.25	762
911.922	760
913.595	768
915.266	808
916.938	784
918.609	778
920.28	808
921.951	814
923.623	862
925.293	862
926.963	872
928.633	872
930.302	912
931.97	912
933.639	912
935.307	944
936.975	944
938.642	984
940.31	962
941.977	976
943.643	982
945.31	998
946.976	1018
948.641	1006
950.307	994
951.972	988
953.636	1008
955.301	1022
956.965	978
958.629	1016
960.292	1024
961.955	968
963.618	1006
965.279	992
966.941	970
968.603	1004
970.265	1026
971.926	1034
973.587	974
975.248	1032
976.908	1008
978.566	1040
980.226	1048
981.886	1022
983.545	1068
985.204	1062
986.86	1064
988.519	1058
990.177	1104
991.834	1086
993.491	1134
995.147	1112
996.803	1118
998.46	1134
1000.12	1078
1001.77	1128
1003.43	1140
1005.08	1104
1006.73	1146
1008.39	1138
1010.04	1150
1011.7	1172
1013.35	1206
1015	1222
1016.65	1178
1018.3	1212
1019.96	1218
1021.61	1284
1023.26	1312
1024.91	1306
1026.56	1320
1028.21	1304
1029.86	1322
1031.51	1366
1033.16	1384
1034.81	1420
1036.46	1438
1038.1	1430
1039.75	1424
1041.4	1486
1043.05	1514
1044.69	1504
1046.34	1534
1047.99	1590
1049.63	1564
1051.28	1600
1052.92	1638
1054.57	1660
1056.21	1642
1057.86	1744
1059.5	1720
1061.14	1788
1062.79	1754
1064.43	1818
1066.07	1826
1067.72	1880
1069.36	1796
1071	1884
1072.64	1966
1074.28	1990
1075.92	2034
1077.57	2012
1079.2	2086
1080.84	2058
1082.48	2092
1084.12	2086
1085.76	2116
1087.4	2170
1089.04	2162
1090.68	2182
1092.32	2206
1093.95	2176
1095.59	2186
1097.22	2162
1098.86	2156
1100.5	2114
1102.13	2134
1103.77	2090
1105.4	2082
1107.04	2080
1108.67	2032
1110.31	1998
1111.94	1900
1113.58	1924
1115.21	1890
1116.84	1858
1118.47	1830
1120.1	1818
1121.74	1734
1123.37	1752
1125	1670
1126.63	1634
1128.26	1622
1129.89	1600
1131.52	1536
1133.15	1490
1134.78	1490
1136.41	1450
1138.04	1460
1139.67	1414
1141.3	1300
1142.92	1316
1144.55	1322
1146.18	1278
1147.8	1232
1149.43	1240
1151.06	1238
1152.68	1256
1154.31	1152
1155.93	1122
1157.56	1134
1159.18	1120
1160.81	1104
1162.43	1094
1164.06	1050
1165.68	1086
1167.3	1084
1168.93	998
1170.55	992
1172.17	1006
1173.79	1004
1175.41	988
1177.03	912
1178.66	900
1180.28	902
1181.9	902
1183.52	890
1185.14	916
1186.75	864
1188.37	874
1189.99	862
1191.61	816
1193.23	834
1194.85	820
1196.46	812
1198.08	804
1199.7	766
1201.31	764
1202.93	798
1204.55	738
1206.16	742
1207.78	728
1209.39	732
1211.01	718
1212.62	716
1214.24	718
1215.85	690
1217.46	672
1219.08	664
1220.69	702
1222.3	650
1223.91	676
1225.53	654
1227.14	662
1228.75	652
1230.36	632
1231.97	638
1233.58	648
1235.19	648
1236.8	640
1238.41	638
1240.02	618
1241.63	624
1243.23	584
1244.84	598
1246.45	600
1248.06	628
1249.67	614
1251.27	578
1252.88	642
1254.48	614
1256.09	602
1257.7	620
1259.3	622
1260.91	616
1262.51	596
1264.12	636
1265.72	614
1267.32	612
1268.93	616
1270.53	616
1272.13	590
1273.73	620
1275.34	602
1276.94	630
1278.54	610
1280.14	616
1281.74	600
1283.35	622
1284.94	610
1286.54	634
1288.15	620
1289.74	606
1291.34	640
1292.94	592
1294.54	620
1296.14	636
1297.74	620
1299.33	612
1300.93	586
1302.53	626
1304.12	590
1305.72	624
1307.32	612
1308.91	616
1310.51	634
1312.1	622
1313.7	608
1315.29	622
1316.89	628
1318.48	626
1320.07	588
1321.67	612
1323.26	608
1324.85	588
1326.45	606
1328.04	654
1329.63	618
1331.22	634
1332.81	634
1334.4	632
1335.99	614
1337.58	614
1339.17	610
1340.77	608
1342.35	646
1343.94	648
1345.53	628
1347.12	622
1348.71	622
1350.3	606
1351.88	628
1353.47	620
1355.06	618
1356.64	630
1358.23	644
1359.82	610
1361.4	652
1362.99	638
1364.57	578
1366.16	612
1367.74	568
1369.33	600
1370.91	596
1372.49	648
1374.08	618
1375.66	656
1377.24	630
1378.82	634
1380.41	588
1381.99	604
1383.57	618
1385.15	602
1386.73	616
1388.31	622
1389.89	630
1391.47	630
1393.05	592
1394.63	612
1396.21	608
1397.79	636
1399.37	652
1400.95	622
1402.52	606
1404.1	634
1405.68	596
1407.25	590
1408.83	602
1410.41	626
1411.98	598
1413.56	668
1415.13	606
1416.71	620
1418.29	614
1419.86	604
1421.43	600
1423.01	644
1424.58	608
1426.15	624
1427.73	618
1429.3	616
1430.87	634
1432.44	628
1434.02	646
1435.59	630
1437.16	646
1438.73	638
1440.3	634
1441.87	624
1443.44	620
1445.01	626
1446.58	624
1448.15	628
1449.72	630
1451.29	658
1452.85	618
1454.42	614
1455.99	630
1457.56	640
1459.12	640
1460.69	632
1462.26	634
1463.82	606
1465.39	624
1466.95	632
1468.52	604
1470.08	638
1471.65	632
1473.21	650
1474.78	610
1476.34	618
1477.9	634
1479.47	604
1481.03	638
1482.59	640
1484.16	650
1485.72	652
1487.28	640
1488.84	618
1490.4	634
1491.96	632
1493.52	622
1495.08	662
1496.64	646
1498.2	620
1499.76	634
1501.32	658
1502.88	628
1504.44	630
1506	600
1507.55	652
1509.11	640
1510.67	646
1512.22	656
1513.78	640
1515.34	662
1516.89	612
1518.45	674
1520.01	630
1521.56	658
1523.11	660
1524.67	630
1526.22	628
1527.78	670
1529.33	636
1530.88	676
1532.44	666
1533.99	634
1535.54	660
1537.09	634
1538.65	660
1540.2	652
1541.75	688
1543.3	628
1544.85	638
1546.4	650
1547.95	626
1549.5	658
1551.05	622
1552.6	660
1554.15	648
1555.7	676
1557.25	670
1558.79	696
1560.34	642
1561.89	636
1563.43	684
1564.98	634
1566.53	652
1568.08	638
1569.62	646
1571.17	660
1572.71	618
1574.26	654
1575.8	656
1577.35	700
1578.89	658
1580.43	640
1581.98	632
1583.52	660
1585.06	642
1586.61	650
1588.15	628
1589.69	630
1591.23	636
1592.77	668
1594.32	654
1595.86	640
1597.4	644
1598.94	632
1600.48	644
1602.02	638
1603.56	654
1605.1	616
1606.64	635.474
1608.18	648.299
1609.71	641.198
1611.25	612.91
1612.79	655.031
1614.33	655.561
1615.86	648.407
1617.4	607.968
1618.94	649.141
1620.47	644.138
1622.01	636.543
1623.55	635.659
1625.08	634
1626.62	642.417
1628.15	610.768
1629.69	645.179
1631.22	615.179
1632.75	640.128
1634.29	626.843
1635.82	626.048
1637.35	629.29
1638.89	620.372
1640.42	625.118
1641.95	611.305
1643.48	629.741
1645.02	598.174
1646.55	634.07
1648.08	624.099
1649.61	607.416
1651.14	604.496
1652.67	616.598
1654.2	636.596
1655.73	621.901
1657.26	611.247
1658.79	611.783
1660.32	616.165
1661.84	618.821
1663.37	618.992
1664.9	584.674
1666.43	640.02
1667.96	621.241
1669.48	617.989
1671.01	615.969
1672.54	587.293
1674.06	602.409
1675.59	598.939
1677.11	596.557
1678.64	601.756
1680.16	624.504
1681.69	616.377
1683.21	593.197
1684.74	603.258
1686.26	600
1687.79	596.827
1689.31	597.584
1690.83	605.094
1692.35	604.503
1693.88	607.737
1695.4	601.477
1696.92	596.921
1698.44	615.556
1699.96	612.354
1701.48	595.9
1703.01	603.692
1704.53	610.602
1706.05	600.077
1707.57	583.096
1709.09	606.073
1710.6	593.595
1712.12	597.966
1713.64	592.941
1715.16	604.187
1716.68	591.73
1718.2	620.574
1719.71	603.575
1721.23	599.013
1722.75	579.854
1724.27	600.689
1725.78	590.714
1727.3	599.635
1728.81	587.529
1730.33	576.13
1731.84	582.07
1733.36	588.081
1734.88	595.809
1736.39	560.628
1737.9	562.724
1739.42	587.64
1740.93	574.159
1742.44	569.872
1743.96	572.437
1745.47	578.396
1746.98	575.693
1748.49	595.384
1750.01	545.043
1751.52	577.838
1753.03	557.73
1754.54	569.422
1756.05	552.283
1757.56	560.13
1757.63	560
1759.14	568
1760.66	570
1762.18	550
1763.69	558
1765.21	548
1766.72	554
1768.24	550
1769.75	566
1771.27	580
1772.78	550
1774.3	584
1775.81	562
1777.32	554
1778.84	580
1780.35	536
1781.86	562
1783.38	564
1784.89	550
1786.4	586
1787.91	572
1789.42	540
1790.93	558
1792.44	558
1793.95	548
1795.47	578
1796.98	572
1798.48	560
1799.99	560
1801.5	562
1803.01	532
1804.52	564
1806.03	558
1807.54	568
1809.04	566
1810.55	572
1812.06	590
1813.57	550
1815.07	568
1816.58	588
1818.08	580
1819.59	558
1821.09	586
1822.6	566
1824.11	578
1825.61	572
1827.11	580
1828.62	560
1830.12	552
1831.63	566
1833.13	572
1834.63	566
1836.13	564
1837.64	574
1839.14	572
1840.64	568
1842.14	556
1843.64	566
1845.14	548
1846.64	562
1848.14	584
1849.64	568
1851.14	582
1852.64	580
1854.14	574
1855.64	586
1857.14	564
1858.64	554
1860.14	564
1861.64	566
1863.13	574
1864.63	548
1866.13	580
1867.63	594
1869.12	574
1870.62	592
1872.11	556
1873.61	570
1875.1	586
1876.6	558
1878.09	570
1879.59	578
1881.08	556
1882.58	590
1884.07	588
1885.56	594
1887.06	598
1888.55	574
1890.04	602
1891.54	572
1893.03	574
1894.52	596
1896.01	568
1897.5	578
1898.99	590
1900.48	562
1901.97	592
1903.46	574
1904.96	580
1906.44	572
1907.93	562
1909.42	572
1910.91	590
1912.4	576
1913.89	590
1915.38	596
1916.86	598
1918.35	570
1919.84	576
1921.32	596
1922.81	580
1924.3	582
1925.78	596
1927.27	568
1928.76	590
1930.24	586
1931.72	582
1933.21	596
1934.69	578
1936.18	578
1937.66	578
1939.15	598
1940.63	598
1942.11	590
1943.59	588
1945.08	578
1946.56	574
1948.04	582
1949.52	564
1951	564
1952.48	598
1953.97	568
1955.45	584
1956.93	578
1958.41	596
1959.89	584
1961.37	576
1962.85	550
1964.32	570
1965.8	596
1967.28	590
1968.76	588
1970.24	588
1971.71	584
1973.19	592
1974.67	574
1976.15	572
1977.62	586
1979.1	590
1980.57	578
1982.05	590
1983.53	590
1985	584
1986.48	570
1987.95	566
1989.42	598
1990.9	564
1992.37	586
1993.85	548
1995.32	572
1996.79	578
1998.26	578
1999.74	574
2001.21	584
2002.68	592
2004.15	600
2005.62	574
2007.09	570
2008.56	584
2010.03	576
2011.51	604
2012.98	584
2014.44	588
2015.92	592
2017.38	596
2018.85	598
2020.32	554
2021.79	602
2023.26	574
2024.73	590
2026.19	586
2027.66	612
2029.13	578
2030.59	590
2032.06	578
2033.53	578
2034.99	612
2036.46	592
2037.92	576
2039.39	594
2040.85	584
2042.32	582
2043.78	544
2045.25	588
2046.71	578
2048.17	590
2049.64	584
2051.1	600
2052.56	590
2054.02	604
2055.49	574
2056.95	600
2058.41	608
2059.87	612
2061.33	578
2062.79	618
2064.25	614
2065.71	576
2067.17	586
2068.63	608
2070.09	586
2071.55	602
2073.01	574
2074.47	586
2075.93	596
2077.39	588
2078.84	596
2080.3	586
2081.76	616
2083.22	610
2084.67	604
2086.13	588
2087.59	576
2089.04	596
2090.5	570
2091.95	592
2093.41	600
2094.86	592
2096.32	558
2097.77	588
2099.23	588
2100.68	608
2102.13	586
2103.59	594
2105.04	574
2106.49	576
2107.95	604
2109.4	594
2110.85	594
2112.3	586
2113.75	590
2115.21	594
2116.66	608
2118.11	574
2119.56	612
2121.01	620
2122.46	590
2123.91	592
2125.36	600
2126.8	582
2128.25	626
2129.7	578
2131.15	606
2132.6	604
2134.05	612
2135.49	576
2136.94	588
2138.39	592
2139.83	574
2141.28	616
2142.73	624
2144.17	572
2145.62	616
2147.06	602
2148.51	606
2149.95	608
2151.4	600
2152.84	600
2154.29	596
2155.73	614
2157.17	582
2158.62	608
2160.06	594
2161.5	608
2162.95	602
2164.39	624
2165.83	592
2167.27	606
2168.71	628
2170.15	592
2171.59	600
2173.04	616
2174.48	574
2175.92	590
2177.36	604
2178.79	592
2180.24	602
2181.67	578
2183.11	594
2184.55	598
2185.99	614
2187.43	596
2188.86	600
2190.3	598
2191.74	588
2193.18	608
2194.61	602
2196.05	596
2197.49	598
2198.92	606
2200.36	606
2201.79	576
2203.23	586
2204.66	596
2206.1	582
2207.53	584
2208.97	574
2210.4	578
2211.83	582
2213.27	586
2214.7	604
2216.13	592
2217.57	564
2219	594
2220.43	610
2221.86	594
2223.29	582
2224.72	590
2226.15	594
2227.59	568
2229.02	584
2230.45	582
2231.88	572
2233.31	608
2234.74	590
2236.16	570
2237.59	600
2239.02	560
2240.45	592
2241.88	588
2243.31	558
2244.73	556
2246.16	580
2247.59	558
2249.01	584
2250.44	612
2251.87	584
2253.29	572
2254.72	562
2256.15	610
2257.57	548
2259	586
2260.42	578
2261.84	532
2263.27	602
2264.69	580
2266.12	580
2267.54	560
2268.96	592
2270.39	564
2271.81	596
2273.23	582
2274.65	592
2276.07	600
2277.5	586
2278.92	564
2280.34	592
2281.76	588
2283.18	610
2284.6	586
2286.02	590
2287.44	612
2288.86	574
2290.28	600
2291.7	600
2293.12	624
2294.54	578
2295.95	602
2297.37	596
2298.79	606
2300.21	592
2301.62	650
2303.04	608
2304.46	586
2305.88	622
2307.29	616
2308.71	606
2310.12	608
2311.54	602
2312.95	620
2314.37	650
2315.78	626
2317.2	634
2318.61	602
2320.02	608
2321.44	618
2322.85	646
2324.27	646
2325.68	650
2327.09	704
2328.5	666
2329.92	672
2331.33	650
2332.74	630
2334.15	640
2335.56	650
2336.97	656
2338.38	618
2339.79	644
2341.2	614
2342.61	648
2344.02	662
2345.43	672
2346.84	626
2348.25	638
2349.66	660
2351.07	678
2352.48	656
2353.88	656
2355.29	652
2356.7	680
2358.11	706
2359.51	692
2360.92	660
2362.32	710
2363.73	706
2365.14	694
2366.54	728
2367.95	690
2369.35	686
2370.76	720
2372.16	702
2373.57	716
2374.97	726
2376.37	698
2377.78	726
2379.18	720
2380.58	728
2381.99	728
2383.39	722
2384.79	752
2386.19	738
2387.59	746
2389	734
2390.4	724
2391.8	726
2393.2	748
2394.6	746
2396	726
2397.4	716
2398.8	734
2400.2	744
2401.6	754
2403	756
2404.39	770
2405.79	760
2407.19	766
2408.59	738
2409.99	738
2411.38	702
2412.78	772
2414.18	746
2415.57	760
2416.97	740
2418.37	770
2419.76	748
2421.16	752
2422.55	786
2423.95	770
2425.34	770
2426.74	782
2428.13	754
2429.53	782
2430.92	764
2432.31	764
2433.71	762
2435.1	740
2436.49	726
2437.89	784
2439.28	764
2440.67	746
2442.06	754
2443.45	794
2444.85	750
2446.24	768
2447.63	772
2449.02	780
2450.41	760
2451.8	768
2453.19	764
2454.58	746
2455.97	788
2457.36	776
2458.75	778
2460.13	794
2461.52	782
2462.91	772
2464.3	762
2465.69	768
2467.07	748
2468.46	772
2469.85	774
2471.24	752
2472.62	760
2474.01	760
2475.39	772
2476.78	768
2478.16	764
2479.55	768
2480.94	752
2482.32	758
2483.7	736
2485.09	778
2486.47	748
2487.85	728
2489.24	756
2490.62	716
2492	774
2493.39	768
2494.77	752
2496.15	754
2497.53	752
2498.92	764
2500.3	768
2501.68	776
2503.06	740
2504.44	744
2505.82	742
2507.2	766
2508.58	750
2509.96	740
2511.34	746
2512.72	774
2514.1	778
2515.48	758
2516.85	764
2518.23	788
2519.61	744
2520.99	756
2522.37	752
2523.74	752
2525.12	750
2526.5	734
2527.87	784
2529.25	768
2530.63	770
2532	734
2533.38	794
2534.75	770
2536.13	758
2537.5	762
2538.88	764
2540.25	760
2541.62	790
2543	734
2544.37	750
2545.75	754
2547.12	782
2548.49	766
2549.86	760
2551.24	752
2552.61	786
2553.98	776
2555.35	768
2556.72	746
2558.09	740
2559.47	764
2560.84	762
2562.21	724
2563.57	760
2564.95	728
2566.32	756
2567.68	782
2569.05	776
2570.42	764
2571.79	752
2573.16	750
2574.53	754
2575.9	770
2577.26	770
2578.63	772
2580	766
2581.36	780
2582.73	770
2584.1	756
2585.46	770
2586.83	752
2588.19	796
2589.56	780
2590.93	766
2592.29	788
2593.66	790
2595.02	782
2596.39	772
2597.75	758
2599.11	792
2600.47	782
2601.84	764
2603.2	752
2604.56	782
2605.93	762
2607.29	788
2608.65	728
2610.01	782
2611.38	774
2612.74	808
2614.1	792
2615.46	796
2616.82	782
2618.18	790
2619.54	788
2620.9	736
2622.26	774
2623.62	784
2624.98	786
2626.34	798
2627.69	786
2629.05	798
2630.41	772
2631.77	816
2633.13	796
2634.48	804
2635.84	792
2637.2	762
2638.56	786
2639.91	818
2641.27	794
2642.62	812
2643.98	798
2645.33	798
2646.69	804
2648.05	804
2649.4	816
2650.75	828
2652.11	798
2653.46	822
2654.82	786
2656.17	804
2657.52	820
2658.88	770
2660.23	798
2661.58	826
2662.94	830
2664.29	826
2665.64	820
2666.99	834
2668.34	820
2669.69	800
2671.04	814
2672.39	832
2673.75	806
2675.09	796
2676.45	798
2677.79	778
2679.14	786
2680.49	802
2681.84	802
2683.19	816
2684.54	784
2685.89	806
2687.24	816
2688.58	802
2689.93	800
2691.28	806
2692.63	806
2693.97	834
2695.32	832
2696.67	772
2698.01	806
2699.36	816
2700.7	812
2702.05	802
2703.39	800
2704.74	792
2706.08	816
2707.43	810
2708.77	808
2710.12	842
2711.46	800
2712.8	806
2714.15	852
2715.49	806
2716.83	806
2718.17	826
2719.52	804
2720.86	838
2722.2	832
2723.54	828
2724.88	824
2726.22	814
2727.57	840
2728.91	850
2730.25	852
2731.59	824
2732.93	834
2734.27	832
2735.61	828
2736.95	816
2738.28	828
2739.62	796
2740.96	842
2742.3	822
2743.64	850
2744.98	816
2746.31	800
2747.65	832
2748.99	832
2750.33	852
2751.66	844
2753	800
2754.33	846
2755.67	834
2757.01	844
2758.34	832
2759.68	820
2761.01	860
2762.35	878
2763.68	864
2765.01	862
2766.35	862
2767.68	864
2769.02	846
2770.35	844
2771.68	870
2773.02	852
2774.35	890
2775.68	866
2777.01	862
2778.35	864
2779.68	878
2781.01	886
2782.34	872
2783.67	868
2785	856
2786.33	880
2787.66	850
2788.99	882
2790.32	870
2791.65	922
2792.98	886
2794.31	876
2795.64	852
2796.97	888
2798.3	910
2799.62	888
2800.95	892
2802.28	878
2803.61	846
2804.93	886
2806.26	868
2807.59	896
2808.91	880
2810.24	892
2811.57	888
2812.89	916
2814.22	932
2815.54	872
2816.87	922
2818.19	894
2819.52	870
2820.84	870
2822.17	914
2823.49	904
2824.81	906
2826.14	910
2827.46	906
2828.78	888
2830.11	872
2831.43	908
2832.75	894
2834.07	922
2835.39	888
2836.72	904
2838.04	882
2839.36	916
2840.68	946
2842	944
2843.32	868
2844.64	938
2845.96	932
2847.28	922
2848.6	924
2849.92	966
2851.24	926
2852.56	890
2853.88	956
2855.19	900
2856.51	930
2857.83	950
2859.15	926
2860.46	936
2861.78	946
2863.1	906
2864.42	944
2865.73	930
2867.05	932
2868.36	934
2869.68	948
2871	958
2872.31	960
2873.63	912
2874.94	920
2876.26	942
2877.57	984
2878.88	966
2880.2	908
2881.51	938
2882.82	966
2884.14	956
2885.45	1008
2886.76	946
2888.08	962
2889.39	972
2890.7	946
2892.01	956
2893.33	986
2894.64	960
2895.95	934
2897.26	990
2898.57	938
2899.88	952
2901.19	986
2902.5	952
2903.81	948
2905.12	962
2906.43	954
2907.74	970
2909.05	978
2910.35	984
2911.66	996
2912.97	954
2914.28	972
2915.59	980
2916.89	1016
2918.2	1010.05
2919.51	968.488
2920.82	989.998
2922.12	989.37
2923.43	986.551
2924.73	972.024
2926.04	991.349
2927.35	987.137
2928.65	1000.04
2929.96	1009.42
2931.26	1002.83
2932.57	973.169
2933.87	1017.59
2935.17	1004.36
2936.48	983.501
2937.78	992.324
2939.09	996.406
2940.39	1006.87
2941.69	1013.39
2943	1000.74
2944.3	1005.34
2945.6	1003.89
2946.9	1003.91
2948.2	992.038
2949.51	1003.19
2950.81	976.472
2952.11	1001.53
2953.41	1017.16
2954.71	1014.81
2956.01	1020.06
2957.31	996.115
2958.61	1020.93
2959.91	1003.77
2961.21	1007.85
2962.51	1042.14
2963.81	1020.95
2965.11	1008.08
2966.41	1022
2967.71	1023.41
2969.01	1017.93
2970.3	1011.19
2971.6	991.749
2972.9	1046.01
2974.2	1036.43
2975.49	1015.09
2976.79	1041.8
2978.09	1040.97
2979.39	1031.01
2980.68	1032.33
2981.98	1035.14
2983.27	1053.78
2984.57	1040.02
2985.86	1063.49
2987.16	1057.78
2988.45	1051.21
2989.75	1058.72
2991.04	1062.54
2992.34	1055.53
2993.63	1048.25
2994.93	1051.39
2996.22	1058.18
2997.51	1057.24
2998.81	1083.28
3000.1	1072.71
3001.39	1068.29
3002.68	1053.16
3003.98	1083.58
3005.27	1075.2
3006.56	1082.36
3007.85	1095.42
3009.14	1099.09
3010.43	1051.04
3011.72	1082.28
3013.01	1092.01
3014.31	1087.31
3015.59	1075.51
3016.89	1073.51
3018.18	1086.79
3019.47	1088.78
3020.75	1102.16
3022.04	1091.35
3023.33	1083.36
3024.62	1103.65
3025.91	1101.07
3027.2	1107.49
3028.48	1077.35
3029.77	1121.1
3031.06	1107.55
3032.35	1133.02
3033.64	1126.25
3034.92	1108.77
3036.21	1097.01
3037.5	1125.28
3038.78	1109.45
3040.07	1104.45
3041.35	1102.62
3042.64	1121.41
3043.92	1148.95
3045.21	1124.28
3046.49	1120.26
3047.78	1117.54
3048.11	1116
3049.4	1140
3050.69	1140
3051.98	1120
3053.27	1142
3054.56	1104
3055.85	1126
3057.14	1156
3058.43	1130
3059.72	1136
3061.01	1154
3062.29	1150
3063.58	1140
3064.87	1170
3066.16	1114
3067.44	1178
3068.73	1156
3070.02	1164
3071.31	1142
3072.59	1148
3073.88	1144
3075.16	1130
3076.45	1148
3077.73	1190
3079.02	1176
3080.31	1156
3081.59	1180
3082.87	1158
3084.16	1180
3085.44	1202
3086.73	1200
3088.01	1166
3089.29	1174
3090.58	1122
3091.86	1184
3093.14	1188
3094.43	1186
3095.71	1212
3096.99	1190
3098.27	1194
3099.55	1200
3100.84	1198
3102.12	1190
3103.4	1198
3104.68	1170
3105.96	1176
3107.24	1212
3108.52	1228
3109.8	1208
3111.08	1226
3112.36	1232
3113.64	1254
3114.92	1222
3116.2	1220
3117.48	1218
3118.75	1216
3120.03	1244
3121.31	1230
3122.59	1224
3123.87	1218
3125.14	1196
3126.42	1250
3127.7	1256
3128.97	1230
3130.25	1212
3131.53	1266
3132.8	1242
3134.08	1232
3135.35	1284
3136.63	1268
3137.9	1256
3139.18	1278
3140.45	1262
3141.73	1266
3143	1252
3144.28	1262
3145.55	1260
3146.82	1290
3148.1	1256
3149.37	1244
3150.64	1292
3151.92	1260
3153.19	1278
3154.46	1290
3155.73	1302
3157.01	1320
3158.28	1290
3159.55	1326
3160.82	1296
3162.09	1270
3163.36	1290
3164.63	1320
3165.9	1338
3167.17	1296
3168.44	1284
3169.71	1346
3170.98	1334
3172.25	1284
3173.52	1290
3174.79	1340
3176.06	1322
3177.32	1326
3178.59	1342
3179.86	1326
3181.13	1330
3182.4	1312
3183.66	1316
3184.93	1346
3186.2	1342
3187.46	1340
3188.73	1338
3190	1312
3191.26	1336
3192.53	1344
3193.79	1346
3195.06	1344
3196.32	1274
3197.59	1336
3198.85	1360
3200.12	1334
3201.38	1336
3202.65	1328
3203.91	1356
3205.17	1330
3206.44	1360
3207.7	1392
3208.96	1380
3210.23	1344
3211.49	1368
3212.75	1382
3214.01	1372
3215.27	1380
3216.54	1364
3217.8	1360
3219.06	1358
3220.32	1364
3221.58	1368
3222.84	1390
3224.1	1388
3225.36	1386
3226.62	1398
3227.88	1352
3229.14	1362
3230.4	1374
3231.66	1372
3232.92	1390
3234.18	1392
3235.44	1396
3236.69	1386
3237.95	1390
3239.21	1366
3240.47	1394
3241.72	1366
3242.98	1414
3244.24	1342
3245.5	1430
3246.75	1426
3248.01	1396
3249.26	1388
3250.52	1418
3251.78	1430
3253.03	1416
3254.29	1424
3255.54	1428
3256.8	1414
3258.05	1412
3259.3	1430
3260.56	1426
3261.81	1410
3263.07	1440
3264.32	1410
3265.57	1462
3266.83	1476
3268.08	1460
3269.33	1440
3270.58	1444
3271.84	1462
3273.09	1434
3274.34	1434
3275.59	1448
3276.84	1472
3278.09	1460
3279.35	1454
3280.6	1444
3281.85	1488
3283.1	1480
3284.35	1472
3285.6	1496
3286.85	1504
3288.1	1438
3289.35	1488
3290.59	1472
3291.84	1478
3293.09	1514
3294.34	1488
3295.59	1538
3296.84	1494
3298.08	1460
3299.33	1490
3300.58	1478
3301.83	1508
3303.07	1554
3304.32	1508
3305.57	1542
3306.81	1570
3308.06	1542
3309.3	1508
3310.55	1556
3311.79	1558
3313.04	1500
3314.29	1544
3315.53	1564
3316.77	1588
3318.02	1542
3319.26	1554
3320.51	1528
3321.75	1558
3322.99	1554
3324.24	1566
3325.48	1562
3326.72	1532
3327.97	1564
3329.21	1562
3330.45	1562
3331.69	1552
3332.93	1580
3334.18	1592
3335.42	1558
3336.66	1578
3337.9	1598
3339.14	1608
3340.38	1572
3341.62	1564
3342.86	1588
3344.1	1592
3345.34	1590
3346.58	1568
3347.82	1610
3349.06	1570
3350.3	1628
3351.54	1580
3352.77	1636
3354.01	1584
3355.25	1580
3356.49	1608
3357.73	1608
3358.96	1636
3360.2	1596
3361.44	1596
3362.67	1622
3363.91	1576
3365.15	1586
3366.38	1630
3367.62	1616
3368.85	1622
3370.09	1586
3371.33	1636
3372.56	1594
3373.8	1650
3375.03	1622
3376.26	1628
3377.5	1620
3378.73	1626
3379.97	1646
3381.2	1618
3382.43	1658
3383.67	1602
3384.9	1670
3386.13	1636
3387.37	1638
3388.6	1672
3389.83	1620
3391.06	1656
3392.29	1696
3393.52	1670
3394.76	1666
3395.99	1642
3397.22	1652
3398.45	1660
3399.68	1638
3400.91	1668
3402.14	1650
3403.37	1676
3404.6	1658
3405.83	1660
3407.06	1664
3408.29	1658
3409.51	1646
3410.74	1652
3411.97	1682
3413.2	1674
3414.43	1718
3415.66	1710
3416.88	1730
3418.11	1698
3419.34	1710
3420.56	1708
3421.79	1698
3423.02	1742
3424.24	1756
3425.47	1722
3426.7	1676
3427.92	1698
3429.15	1732
3430.37	1730
3431.6	1722
3432.82	1746
3434.05	1776
3435.27	1746
3436.5	1758
3437.72	1774
3438.94	1758
3440.17	1782
3441.39	1780
3442.61	1728
3443.84	1782
3445.06	1796
3446.28	1754
3447.51	1810
3448.73	1798
3449.95	1806
3451.17	1776
3452.39	1754
3453.61	1786
3454.83	1760
3456.06	1796
3457.28	1804
3458.5	1840
3459.72	1792
3460.94	1846
3462.16	1838
3463.38	1786
3464.6	1820
3465.82	1828
3467.04	1830
3468.25	1834
3469.47	1866
3470.69	1794
3471.91	1784
3473.13	1854
3474.34	1838
3475.56	1836
3476.78	1860
3478	1882
3479.21	1858
3480.43	1878
3481.65	1862
3482.86	1876
3484.08	1804
3485.3	1892
3486.51	1852
3487.73	1870
3488.94	1820
3490.16	1862
3491.37	1886
3492.59	1854
3493.8	1836
3495.02	1862
3496.23	1836
3497.45	1836
3498.66	1880
3499.87	1844
3501.09	1862
3502.3	1850
3503.51	1854
3504.72	1858
3505.94	1848
3507.15	1904
3508.36	1844
3509.57	1848
3510.79	1882
3512	1846
3513.21	1836
3514.42	1870
3515.63	1894
3516.84	1830
3518.05	1850
3519.26	1836
3520.47	1884
3521.68	1870
3522.89	1884
3524.1	1884
3525.31	1910
3526.52	1932
3527.73	1860
3528.94	1884
3530.14	1842
3531.35	1858
3532.56	1888
3533.77	1920
3534.98	1888
3536.18	1902
3537.39	1880
3538.6	1922
3539.81	1872
3541.01	1878
3542.22	1910
3543.42	1914
3544.63	1858
3545.84	1824
3547.04	1938
3548.25	1934
3549.45	1886
3550.66	1904
3551.86	1886
3553.07	1888
3554.27	1890
3555.47	1930
3556.68	1916
3557.88	1896
3559.09	1896
3560.29	1886
3561.49	1936
3562.7	1930
3563.9	1974
3565.1	1934
3566.3	1918
3567.51	1946
3568.71	1946
3569.91	1998
3571.11	1968
3572.31	1942
3573.51	1968
3574.71	1954
3575.92	1990
3577.12	1964
3578.32	1976
3579.52	1976
3580.72	1996
3581.92	1938
3583.12	2044
3584.31	1994
3585.51	2014
3586.71	1970
3587.91	2014
3589.11	2008
3590.31	2004
3591.51	1966
3592.71	2028
3593.9	2022
3595.1	2004
3596.3	1988
3597.49	2048
3598.69	2024
3599.89	1996
3601.08	2112
3602.28	2052
3603.48	2038
3604.67	2054
3605.87	2044
3607.06	2000
3608.26	2044
3609.45	2070
3610.65	2034
3611.84	2128
3613.04	2114
3614.23	2082
3615.43	2096
3616.62	2066
3617.82	2106
3619.01	2064
3620.2	2096
3621.39	2092
3622.59	2164
3623.78	2100
3624.97	2140
3626.17	2116
3627.36	2090
3628.55	2072
3629.74	2080
3630.93	2088
3632.12	2122
3633.31	2142
3634.51	2122
3635.7	2170
3636.89	2112
3638.08	2136
3639.27	2148
3640.46	2138
3641.65	2124
3642.84	2118
3644.03	2128
3645.22	2124
3646.4	2132
3647.59	2032
3648.78	2080
3649.97	2076
3651.16	2146
3652.35	2194
3653.53	2084
3654.72	2164
3655.91	2122
3657.1	2124
3658.28	2158
3659.47	2152
3660.66	2138
3661.84	2154
3663.03	2122
3664.21	2126
3665.4	2122
3666.59	2144
3667.77	2128
3668.96	2204
3670.14	2142
3671.33	2144
3672.51	2110
3673.69	2128
3674.88	2118
3676.06	2134
3677.25	2122
3678.43	2160
3679.61	2098
3680.8	2148
3681.98	2144
3683.16	2164
3684.34	2116
3685.53	2142
3686.71	2152
3687.89	2134
3689.07	2136
3690.25	2188
3691.44	2172
3692.62	2178
3693.8	2148
3694.98	2136
3696.16	2164
3697.34	2144
3698.52	2164
3699.7	2160
3700.88	2138
3702.06	2182
3703.24	2182
3704.42	2176
3705.6	2174
3706.78	2170
3707.96	2198
3709.13	2150
3710.31	2198
3711.49	2168
3712.67	2200
3713.85	2238
3715.02	2202
3716.2	2250
3717.38	2230
3718.56	2184
3719.73	2202
3720.91	2250
3722.08	2188
3723.26	2190
3724.44	2248
3725.61	2296
3726.79	2202
3727.96	2288
3729.14	2228
3730.31	2268
3731.49	2284
3732.66	2268
3733.84	2294
3735.01	2258
3736.18	2246
3737.36	2272
3738.53	2254
3739.7	2258
3740.88	2296
3742.05	2318
3743.22	2250
3744.4	2270
3745.57	2310
3746.74	2364
3747.91	2306
3749.09	2312
3750.26	2328
3751.43	2312
3752.6	2316
3753.77	2352
3754.94	2334
3756.11	2336
3757.28	2332
3758.45	2314
3759.62	2360
3760.79	2308
3761.96	2390
3763.13	2346
3764.3	2390
3765.47	2346
3766.64	2358
3767.81	2360
3768.98	2372
3770.14	2346
3771.31	2356
3772.48	2364
3773.65	2368
3774.82	2404
3775.98	2382
3777.15	2404
3778.32	2334
3779.48	2372
3780.65	2340
3781.82	2344
3782.98	2422
3784.15	2348
3785.32	2368
3786.48	2386
3787.65	2348
3788.81	2392
3789.98	2402
3791.14	2400
3792.3	2394
3793.47	2378
3794.63	2328
3795.8	2394
3796.96	2366
3798.13	2402
3799.29	2352
3800.45	2348
3801.61	2366
3802.78	2328
3803.94	2382
3805.1	2398
3806.27	2342
3807.43	2360
3808.59	2362
3809.75	2364
3810.91	2396
3812.07	2318
3813.24	2360
3814.4	2364
3815.56	2370
3816.72	2404
3817.88	2404
3819.04	2380
3820.2	2344
3821.36	2374
3822.52	2402
3823.68	2420
3824.84	2400
3826	2408
3827.15	2352
3828.31	2336
3829.47	2354
3830.63	2404
3831.79	2376
3832.95	2394
3834.1	2424
3835.26	2396
3836.42	2390
3837.58	2358
3838.73	2376
3839.89	2384
3841.04	2378
3842.2	2388
3843.36	2378
3844.51	2422
3845.67	2448
3846.83	2430
3847.98	2406
3849.14	2418
3850.29	2418
3851.45	2428
3852.6	2464
3853.76	2422
3854.91	2394
3856.06	2450
3857.22	2458
3858.37	2424
3859.52	2458
3860.68	2418
3861.83	2412
3862.98	2460
3864.14	2416
3865.29	2446
3866.44	2422
3867.59	2490
3868.75	2514
3869.9	2446
3871.05	2472
3872.2	2474
3873.35	2524
3874.5	2502
3875.65	2464
3876.8	2518
3877.95	2520
3879.1	2456
3880.25	2474
3881.4	2474
3882.55	2490
3883.7	2552
3884.85	2506
3886	2472
3887.15	2574
3888.3	2524
3889.45	2542
3890.6	2504
3891.75	2570
3892.89	2530
3894.04	2510
3895.19	2542
3896.34	2496
3897.48	2532
3898.63	2530
3899.78	2512
3900.92	2538
3902.07	2614
3903.22	2576
3904.36	2568
3905.51	2580
3906.65	2546
3907.8	2558
3908.94	2584
3910.09	2580
3911.23	2598
3912.38	2588
3913.52	2650
3914.67	2552
3915.81	2560
3916.96	2634
3918.1	2540
3919.24	2616
3920.39	2582
3921.53	2562
3922.67	2610
3923.82	2600
3924.96	2600
3926.1	2642
3927.24	2646
3928.39	2576
3929.53	2612
3930.67	2650
3931.81	2540
3932.95	2568
3934.09	2656
3935.24	2620
3936.38	2608
3937.52	2628
3938.66	2624
3939.8	2652
3940.94	2594
3942.08	2630
3943.22	2638
3944.36	2616
3945.5	2642
3946.63	2624
3947.77	2624
3948.91	2580
3950.05	2648
3951.19	2590
3952.33	2632
3953.47	2604
3954.6	2638
3955.74	2610
3956.88	2586
3958.02	2624
3959.15	2584
3960.29	2634
3961.43	2608
3962.56	2640
3963.7	2594
3964.84	2594
3965.97	2618
3967.11	2616
3968.24	2606
3969.38	2634
3970.51	2680
3971.65	2588
3972.78	2612
3973.92	2622
3975.05	2598
3976.19	2668
3977.32	2636
3978.45	2642
3979.59	2652
3980.72	2668
3981.85	2634
3982.99	2676
3984.12	2610
3985.25	2624
3986.39	2654
3987.52	2592
3988.65	2662
3989.78	2638
3990.91	2640
3992.05	2630
3993.18	2668
3994.31	2684
3995.44	2656
3996.57	2614
3997.7	2634
3998.83	2656
3999.96	2678
