#Acq. time (s)=	20
#Accumulations=	2
#Range (cm-¹)=	50...4000
#Windows=	3
#Autofocus=	Off
#AutoExposure=	Off
#Spike filter=	Multiple accum.
#Delay time (s)=	0
#Binning=	1
#Readout mode=	Signal
#DeNoise=	Off
#ICS correction=	Off
#Dark correction=	Off
#Inst. Process=	Off
#Instrument=	LabRAM HR Evol
#Detector=	Syncerity OE
#Objective=	x100_VIS
#Grating=	600 (500nm)
#ND Filter=	100%
#Laser=	532nm_Edge
#Hole=	100.021
#Range=	Visible
#Project=	Omar
#Sample=	
#Site=	21-09-22
#Title=	 CN-Sastre
#Remark=	
#Date=	21.09.2022 14:19
#Acquired=	21.09.2022 14:19:06
51.0918	40
52.9354	40
54.7807	50
56.6235	62
58.4681	90
60.3102	136
62.154	204
63.9954	268
65.8385	334
67.6792	420
69.5216	540
71.3615	696
73.2032	872
75.0424	1060
76.8834	1214
78.7218	1260
80.5621	1472
82.3998	1622
84.2393	1744
86.0764	1800
87.9152	1936
89.7515	2006
91.5874	2016
93.4251	2002
95.2603	1988
97.0973	2008
98.9318	1978
100.766	1970
102.602	1962
104.435	2066
106.27	2050
108.103	2068
109.936	1986
111.77	2022
113.601	2018
115.433	2014
117.266	2030
119.096	2000
120.926	1968
122.758	1898
124.588	1934
126.417	1916
128.246	1912
130.076	1884
131.904	1880
133.732	1874
135.561	1866
137.388	1896
139.215	1910
141.041	1874
142.869	1844
144.695	1904
146.52	1898
148.345	1870
150.171	1834
151.995	1898
153.819	1894
155.642	1860
157.465	1812
159.29	1836
161.112	1850
162.934	1814
164.756	1792
166.577	1820
168.398	1784
170.219	1788
172.041	1802
173.861	1760
175.68	1784
177.499	1788
179.318	1790
181.137	1766
182.955	1780
184.772	1786
186.592	1818
188.409	1792
190.225	1754
192.042	1764
193.857	1752
195.673	1752
197.488	1764
199.303	1694
201.118	1678
202.932	1706
204.746	1674
206.559	1702
208.372	1664
210.185	1672
211.997	1676
213.809	1656
215.621	1662
217.432	1692
219.243	1616
221.054	1642
222.864	1670
224.674	1622
226.483	1628
228.293	1616
230.101	1578
231.91	1592
233.718	1594
235.524	1594
237.331	1618
239.138	1592
240.945	1594
242.751	1632
244.557	1624
246.363	1618
248.168	1612
249.971	1598
251.776	1606
253.58	1620
255.384	1614
257.188	1596
258.991	1620
260.792	1636
262.594	1598
264.396	1614
266.198	1566
268	1594
269.799	1568
271.599	1578
273.4	1630
275.2	1570
277	1598
278.797	1550
280.596	1578
282.395	1596
284.193	1626
285.989	1578
287.786	1554
289.584	1660
291.378	1566
293.175	1580
294.971	1572
296.765	1592
298.561	1562
300.356	1614
302.148	1602
303.943	1572
305.737	1636
307.529	1620
309.322	1666
311.115	1640
312.906	1654
314.698	1626
316.49	1634
318.28	1676
320.071	1608
321.86	1692
323.651	1668
325.441	1644
327.229	1618
329.019	1674
330.806	1612
332.595	1610
334.381	1624
336.17	1640
337.955	1610
339.743	1658
341.528	1624
343.315	1600
345.099	1628
346.885	1632
348.669	1566
350.455	1656
352.238	1656
354.022	1586
355.805	1640
357.589	1646
359.371	1630
361.154	1650
362.935	1594
364.718	1648
366.498	1634
368.278	1672
370.06	1640
371.839	1654
373.62	1636
375.398	1696
377.177	1700
378.956	1694
380.734	1656
382.513	1696
384.29	1676
386.067	1648
387.845	1670
389.621	1678
391.396	1672
393.173	1714
394.948	1648
396.723	1694
398.499	1662
400.273	1692
402.046	1690
403.819	1666
405.594	1658
407.366	1698
409.138	1676
410.91	1680
412.683	1672
414.454	1660
416.225	1652
417.995	1700
419.768	1688
421.537	1674
423.307	1706
425.076	1636
426.844	1622
428.615	1696
430.382	1704
432.15	1698
433.917	1708
435.684	1706
437.451	1734
439.219	1656
440.985	1714
442.751	1716
444.516	1752
446.281	1754
448.045	1686
449.81	1712
451.574	1732
453.337	1736
455.102	1722
456.865	1668
458.628	1704
460.39	1726
462.152	1716
463.913	1722
465.674	1718
467.435	1686
469.196	1678
470.956	1680
472.716	1666
474.475	1690
476.234	1720
477.993	1682
479.752	1710
481.51	1710
483.268	1700
485.025	1648
486.782	1694
488.539	1692
490.295	1626
492.051	1678
493.807	1654
495.563	1614
497.316	1674
499.07	1620
500.825	1688
502.579	1642
504.333	1630
506.086	1652
507.839	1652
509.592	1660
511.344	1660
513.094	1596
514.846	1670
516.597	1658
518.349	1694
520.099	1680
521.85	1670
523.598	1728
525.347	1756
527.097	1776
528.846	1766
530.595	1796
532.341	1844
534.089	1910
535.837	1898
537.584	1928
539.329	1948
541.076	2026
542.822	2090
544.568	2104
546.312	2126
548.057	2150
549.802	2180
551.545	2164
553.289	2198
555.033	2202
556.775	2256
558.518	2236
560.261	2246
562.002	2226
563.744	2198
565.487	2178
567.226	2196
568.968	2160
570.709	2164
572.447	2144
574.188	2136
575.926	2104
577.665	2028
579.405	2062
581.142	2024
582.88	2002
584.617	1956
586.355	1894
588.091	1928
589.828	1878
591.565	1860
593.3	1826
595.036	1782
596.77	1788
598.506	1800
600.239	1770
601.974	1722
603.707	1730
605.442	1694
607.174	1658
608.905	1622
610.639	1672
612.37	1632
614.103	1660
615.833	1612
617.565	1600
619.295	1578
621.026	1570
622.755	1532
624.484	1526
626.215	1490
627.943	1522
629.67	1462
631.4	1486
633.127	1466
634.856	1494
636.582	1488
638.308	1480
640.036	1462
641.762	1422
643.487	1458
645.214	1388
646.938	1388
648.662	1404
650.386	1394
652.112	1384
653.835	1372
655.558	1336
657.282	1322
659.005	1282
660.726	1282
662.448	1302
664.171	1278
665.892	1252
667.613	1294
669.333	1236
671.053	1276
672.774	1234
674.494	1270
676.213	1196
677.931	1234
679.649	1196
681.369	1160
683.087	1158
684.804	1150
686.521	1090
688.238	1162
689.954	1124
691.67	1126
693.386	1082
695.103	1088
696.818	1064
698.533	1064
700.247	1028
701.961	1010
703.675	1012
705.389	994
707.102	1010
708.814	992
710.527	990
712.239	984
713.951	990
715.662	966
717.373	968
719.084	940
720.795	972
722.505	990
724.215	970
725.924	940
727.633	964
729.342	956
731.051	940
732.759	946
734.467	958
736.174	916
737.882	954
739.589	960
741.295	952
742.999	946
744.705	918
746.411	924
748.116	918
749.821	926
751.526	906
753.23	926
754.934	932
756.636	958
758.34	952
760.043	990
761.745	932
763.448	982
765.148	970
766.85	1008
768.551	1000
770.252	986
771.953	980
773.652	960
775.352	1020
777.052	992
778.751	994
780.448	990
782.147	976
783.846	982
785.544	1016
787.24	962
788.938	972
790.635	926
792.33	942
794.027	960
795.723	946
797.417	978
799.113	970
800.808	950
802.501	950
804.196	948
805.89	936
807.582	924
809.276	922
810.968	910
812.661	916
814.354	930
816.044	928
817.736	890
819.426	874
821.118	868
822.807	842
824.498	892
826.186	858
827.877	846
829.565	834
831.254	826
832.942	860
834.631	808
836.317	804
838.006	812
839.692	812
841.38	828
843.065	770
844.752	778
846.437	756
848.123	788
849.808	766
851.493	796
853.177	764
854.86	778
856.545	772
858.228	750
859.912	780
861.594	808
863.276	774
864.959	784
866.64	770
868.321	758
870.003	776
871.683	790
873.363	752
875.044	786
876.723	752
878.402	750
880.083	778
881.761	802
883.439	770
885.116	816
886.795	792
888.472	774
890.149	780
891.825	816
893.503	814
895.179	794
896.854	808
898.529	830
900.204	828
901.88	826
903.555	838
905.228	836
906.902	854
908.575	866
910.25	848
911.922	898
913.595	862
915.266	864
916.938	936
918.609	892
920.28	908
921.951	898
923.623	940
925.293	912
926.963	932
928.633	956
930.302	982
931.97	970
933.639	954
935.307	958
936.975	1026
938.642	984
940.31	1020
941.977	1008
943.643	1068
945.31	1040
946.976	1030
948.641	1016
950.307	1048
951.972	994
953.636	1020
955.301	1038
956.965	998
958.629	1032
960.292	1012
961.955	1014
963.618	1006
965.279	1020
966.941	1018
968.603	1034
970.265	1042
971.926	1034
973.587	1070
975.248	1046
976.908	1030
978.566	1086
980.226	1062
981.886	1052
983.545	1028
985.204	1120
986.86	1068
988.519	1110
990.177	1066
991.834	1120
993.491	1122
995.147	1122
996.803	1108
998.46	1112
1000.12	1108
1001.77	1132
1003.43	1128
1005.08	1164
1006.73	1156
1008.39	1144
1010.04	1160
1011.7	1166
1013.35	1186
1015	1184
1016.65	1178
1018.3	1226
1019.96	1244
1021.61	1274
1023.26	1238
1024.91	1270
1026.56	1318
1028.21	1320
1029.86	1310
1031.51	1374
1033.16	1346
1034.81	1364
1036.46	1360
1038.1	1356
1039.75	1368
1041.4	1428
1043.05	1408
1044.69	1466
1046.34	1472
1047.99	1520
1049.63	1538
1051.28	1540
1052.92	1568
1054.57	1538
1056.21	1576
1057.86	1606
1059.5	1638
1061.14	1682
1062.79	1638
1064.43	1678
1066.07	1666
1067.72	1736
1069.36	1752
1071	1814
1072.64	1804
1074.28	1850
1075.92	1888
1077.57	1918
1079.2	1882
1080.84	1950
1082.48	1902
1084.12	1938
1085.76	1970
1087.4	1966
1089.04	2026
1090.68	1996
1092.32	2006
1093.95	2064
1095.59	1986
1097.22	1982
1098.86	1962
1100.5	1978
1102.13	1938
1103.77	1938
1105.4	1954
1107.04	1886
1108.67	1872
1110.31	1834
1111.94	1868
1113.58	1782
1115.21	1742
1116.84	1722
1118.47	1670
1120.1	1664
1121.74	1682
1123.37	1616
1125	1566
1126.63	1554
1128.26	1490
1129.89	1494
1131.52	1424
1133.15	1426
1134.78	1438
1136.41	1376
1138.04	1382
1139.67	1372
1141.3	1354
1142.92	1316
1144.55	1330
1146.18	1260
1147.8	1284
1149.43	1258
1151.06	1234
1152.68	1200
1154.31	1202
1155.93	1198
1157.56	1144
1159.18	1136
1160.81	1158
1162.43	1138
1164.06	1124
1165.68	1118
1167.3	1120
1168.93	1104
1170.55	1112
1172.17	1082
1173.79	1088
1175.41	1052
1177.03	1064
1178.66	1004
1180.28	1028
1181.9	990
1183.52	988
1185.14	982
1186.75	1006
1188.37	926
1189.99	972
1191.61	954
1193.23	942
1194.85	946
1196.46	914
1198.08	912
1199.7	962
1201.31	912
1202.93	900
1204.55	922
1206.16	914
1207.78	900
1209.39	896
1211.01	884
1212.62	890
1214.24	840
1215.85	868
1217.46	830
1219.08	824
1220.69	834
1222.3	850
1223.91	844
1225.53	834
1227.14	836
1228.75	820
1230.36	820
1231.97	800
1233.58	848
1235.19	792
1236.8	846
1238.41	786
1240.02	828
1241.63	836
1243.23	826
1244.84	836
1246.45	844
1248.06	850
1249.67	820
1251.27	806
1252.88	840
1254.48	838
1256.09	830
1257.7	838
1259.3	852
1260.91	842
1262.51	840
1264.12	834
1265.72	852
1267.32	836
1268.93	888
1270.53	852
1272.13	836
1273.73	850
1275.34	872
1276.94	894
1278.54	870
1280.14	890
1281.74	880
1283.35	870
1284.94	884
1286.54	908
1288.15	937
1289.74	966
1291.34	940
1292.94	932
1294.54	970
1296.14	920
1297.74	996
1299.33	992
1300.93	994
1302.53	1058
1304.12	1042
1305.72	1006
1307.32	1044
1308.91	1082
1310.51	1102
1312.1	1112
1313.7	1108
1315.29	1124
1316.89	1146
1318.48	1164
1320.07	1190
1321.67	1214
1323.26	1240
1324.85	1294
1326.45	1312
1328.04	1286
1329.63	1324
1331.22	1368
1332.81	1362
1334.4	1362
1335.99	1414
1337.58	1406
1339.17	1444
1340.77	1478
1342.35	1478
1343.94	1504
1345.53	1442
1347.12	1434
1348.71	1436
1350.3	1402
1351.88	1448
1353.47	1414
1355.06	1402
1356.64	1440
1358.23	1374
1359.82	1374
1361.4	1358
1362.99	1298
1364.57	1296
1366.16	1236
1367.74	1226
1369.33	1182
1370.91	1188
1372.49	1184
1374.08	1120
1375.66	1098
1377.24	1098
1378.82	1126
1380.41	1056
1381.99	1080
1383.57	1054
1385.15	1040
1386.73	1040
1388.31	1028
1389.89	980
1391.47	1012
1393.05	1010
1394.63	954
1396.21	948
1397.79	962
1399.37	976
1400.95	946
1402.52	912
1404.1	934
1405.68	908
1407.25	914
1408.83	936
1410.41	890
1411.98	874
1413.56	908
1415.13	888
1416.71	878
1418.29	928
1419.86	914
1421.43	884
1423.01	864
1424.58	876
1426.15	896
1427.73	914
1429.3	892
1430.87	874
1432.44	842
1434.02	888
1435.59	872
1437.16	844
1438.73	850
1440.3	868
1441.87	846
1443.44	830
1445.01	878
1446.58	854
1448.15	832
1449.72	846
1451.29	892
1452.85	868
1454.42	842
1455.99	868
1457.56	850
1459.12	824
1460.69	830
1462.26	886
1463.82	858
1465.39	864
1466.95	838
1468.52	856
1470.08	832
1471.65	880
1473.21	880
1474.78	838
1476.34	844
1477.9	852
1479.47	872
1481.03	862
1482.59	830
1484.16	864
1485.72	858
1487.28	886
1488.84	832
1490.4	874
1491.96	880
1493.52	884
1495.08	870
1496.64	886
1498.2	872
1499.76	884
1501.32	874
1502.88	880
1504.44	904
1506	878
1507.55	884
1509.11	914
1510.67	930
1512.22	904
1513.78	888
1515.34	874
1516.89	910
1518.45	920
1520.01	902
1521.56	900
1523.11	902
1524.67	946
1526.22	942
1527.78	942
1529.33	948
1530.88	926
1532.44	970
1533.99	954
1535.54	1002
1537.09	948
1538.65	974
1540.2	1002
1541.75	1014
1543.3	1046
1544.85	1032
1546.4	1070
1547.95	1038
1549.5	1098
1551.05	1144
1552.6	1112
1554.15	1198
1555.7	1188
1557.25	1204
1558.79	1246
1560.34	1274
1561.89	1320
1563.43	1388
1564.98	1396
1566.53	1496
1568.08	1502
1569.62	1642
1571.17	1620
1572.71	1672
1574.26	1694
1575.8	1790
1577.35	1778
1578.89	1764
1580.43	1748
1581.98	1660
1583.52	1666
1585.06	1544
1586.61	1576
1588.15	1460
1589.69	1456
1591.23	1362
1592.77	1340
1594.32	1324
1595.86	1316
1597.4	1244
1598.94	1280
1600.48	1222
1602.02	1212
1603.56	1220
1605.1	1176
1606.64	1217.79
1608.18	1185.4
1609.71	1213.85
1611.25	1191.99
1612.79	1159.72
1614.33	1185.54
1615.86	1149.27
1617.4	1126.61
1618.94	1064.63
1620.47	1084.27
1622.01	1039.17
1623.55	994.576
1625.08	998.073
1626.62	983.998
1628.15	991.247
1629.69	944.941
1631.22	934.793
1632.75	922.25
1634.29	916.968
1635.82	921.849
1637.35	918.734
1638.89	873.263
1640.42	869.873
1641.95	860.26
1643.48	843.252
1645.02	849.407
1646.55	835.67
1648.08	831.302
1649.61	821.602
1651.14	835.187
1652.67	812.686
1654.2	837.326
1655.73	825.67
1657.26	825.644
1658.79	836.433
1660.32	823.054
1661.84	824.841
1663.37	832.138
1664.9	817.437
1666.43	824.702
1667.96	814.164
1669.48	817.508
1671.01	807.783
1672.54	815.037
1674.06	801.276
1675.59	814.44
1677.11	802.009
1678.64	785.441
1680.16	793.487
1681.69	785.054
1683.21	779.758
1684.74	808.932
1686.26	787.207
1687.79	797.399
1689.31	794.012
1690.83	813.341
1692.35	779.795
1693.88	786.478
1695.4	790.957
1696.92	804.587
1698.44	782.884
1699.96	798.146
1701.48	806.347
1703.01	796.86
1704.53	800.632
1706.05	803.415
1707.57	803.414
1709.09	798.825
1710.6	804.694
1712.12	786.261
1713.64	783.019
1715.16	789.606
1716.68	811.053
1718.2	803.988
1719.71	793.382
1721.23	828.147
1722.75	777.952
1724.27	794.92
1725.78	795.461
1727.3	771.969
1728.81	790.084
1730.33	790.164
1731.84	812.161
1733.36	798.695
1734.88	780.494
1736.39	801.488
1737.9	797.981
1739.42	828.382
1740.93	797.653
1742.44	763.285
1743.96	771.315
1745.47	784.627
1746.98	794.435
1748.49	774.745
1750.01	791.15
1751.52	815.833
1753.03	794.466
1754.54	794.984
1756.05	789.381
1757.56	757.431
1757.63	756
1759.14	776
1760.66	772
1762.18	788
1763.69	754
1765.21	782
1766.72	808
1768.24	758
1769.75	786
1771.27	804
1772.78	802
1774.3	770
1775.81	804
1777.32	780
1778.84	788
1780.35	774
1781.86	808
1783.38	780
1784.89	772
1786.4	792
1787.91	840
1789.42	764
1790.93	776
1792.44	792
1793.95	800
1795.47	768
1796.98	818
1798.48	782
1799.99	784
1801.5	784
1803.01	800
1804.52	790
1806.03	770
1807.54	778
1809.04	800
1810.55	820
1812.06	792
1813.57	782
1815.07	804
1816.58	750
1818.08	790
1819.59	780
1821.09	752
1822.6	786
1824.11	788
1825.61	764
1827.11	770
1828.62	784
1830.12	802
1831.63	826
1833.13	784
1834.63	770
1836.13	762
1837.64	762
1839.14	806
1840.64	808
1842.14	768
1843.64	812
1845.14	766
1846.64	788
1848.14	778
1849.64	764
1851.14	758
1852.64	820
1854.14	762
1855.64	776
1857.14	794
1858.64	802
1860.14	758
1861.64	776
1863.13	788
1864.63	786
1866.13	804
1867.63	774
1869.12	780
1870.62	776
1872.11	780
1873.61	762
1875.1	748
1876.6	834
1878.09	776
1879.59	790
1881.08	782
1882.58	796
1884.07	768
1885.56	792
1887.06	770
1888.55	804
1890.04	802
1891.54	794
1893.03	774
1894.52	780
1896.01	796
1897.5	810
1898.99	798
1900.48	788
1901.97	782
1903.46	790
1904.96	786
1906.44	764
1907.93	796
1909.42	788
1910.91	786
1912.4	816
1913.89	792
1915.38	792
1916.86	794
1918.35	814
1919.84	786
1921.32	770
1922.81	772
1924.3	758
1925.78	806
1927.27	798
1928.76	786
1930.24	778
1931.72	812
1933.21	800
1934.69	778
1936.18	754
1937.66	760
1939.15	810
1940.63	780
1942.11	774
1943.59	788
1945.08	788
1946.56	804
1948.04	782
1949.52	798
1951	812
1952.48	796
1953.97	754
1955.45	766
1956.93	790
1958.41	766
1959.89	758
1961.37	764
1962.85	778
1964.32	772
1965.8	792
1967.28	764
1968.76	780
1970.24	782
1971.71	806
1973.19	764
1974.67	794
1976.15	778
1977.62	788
1979.1	758
1980.57	754
1982.05	760
1983.53	770
1985	768
1986.48	782
1987.95	808
1989.42	762
1990.9	774
1992.37	786
1993.85	778
1995.32	774
1996.79	782
1998.26	762
1999.74	760
2001.21	794
2002.68	770
2004.15	764
2005.62	784
2007.09	776
2008.56	796
2010.03	788
2011.51	776
2012.98	780
2014.44	752
2015.92	802
2017.38	776
2018.85	766
2020.32	788
2021.79	772
2023.26	758
2024.73	780
2026.19	782
2027.66	768
2029.13	758
2030.59	758
2032.06	758
2033.53	798
2034.99	780
2036.46	782
2037.92	794
2039.39	798
2040.85	790
2042.32	780
2043.78	776
2045.25	762
2046.71	772
2048.17	820
2049.64	786
2051.1	780
2052.56	768
2054.02	788
2055.49	768
2056.95	770
2058.41	802
2059.87	806
2061.33	776
2062.79	810
2064.25	782
2065.71	782
2067.17	796
2068.63	806
2070.09	792
2071.55	782
2073.01	786
2074.47	800
2075.93	790
2077.39	770
2078.84	724
2080.3	766
2081.76	766
2083.22	780
2084.67	770
2086.13	766
2087.59	778
2089.04	788
2090.5	784
2091.95	754
2093.41	786
2094.86	776
2096.32	778
2097.77	784
2099.23	736
2100.68	784
2102.13	764
2103.59	748
2105.04	722
2106.49	796
2107.95	780
2109.4	768
2110.85	768
2112.3	774
2113.75	782
2115.21	758
2116.66	750
2118.11	772
2119.56	772
2121.01	788
2122.46	730
2123.91	742
2125.36	758
2126.8	760
2128.25	764
2129.7	750
2131.15	794
2132.6	760
2134.05	766
2135.49	754
2136.94	770
2138.39	738
2139.83	764
2141.28	758
2142.73	772
2144.17	780
2145.62	796
2147.06	746
2148.51	776
2149.95	764
2151.4	766
2152.84	776
2154.29	762
2155.73	772
2157.17	796
2158.62	798
2160.06	752
2161.5	756
2162.95	772
2164.39	786
2165.83	750
2167.27	780
2168.71	772
2170.15	748
2171.59	740
2173.04	772
2174.48	762
2175.92	774
2177.36	778
2178.79	750
2180.24	776
2181.67	788
2183.11	808
2184.55	772
2185.99	782
2187.43	782
2188.86	786
2190.3	762
2191.74	790
2193.18	808
2194.61	778
2196.05	774
2197.49	798
2198.92	772
2200.36	778
2201.79	762
2203.23	778
2204.66	780
2206.1	770
2207.53	740
2208.97	780
2210.4	782
2211.83	780
2213.27	788
2214.7	770
2216.13	750
2217.57	758
2219	738
2220.43	746
2221.86	762
2223.29	788
2224.72	774
2226.15	734
2227.59	762
2229.02	768
2230.45	742
2231.88	762
2233.31	730
2234.74	720
2236.16	746
2237.59	720
2239.02	730
2240.45	732
2241.88	744
2243.31	726
2244.73	754
2246.16	730
2247.59	742
2249.01	724
2250.44	726
2251.87	712
2253.29	752
2254.72	740
2256.15	766
2257.57	740
2259	710
2260.42	730
2261.84	714
2263.27	746
2264.69	738
2266.12	744
2267.54	772
2268.96	722
2270.39	730
2271.81	752
2273.23	728
2274.65	740
2276.07	740
2277.5	758
2278.92	768
2280.34	762
2281.76	760
2283.18	750
2284.6	788
2286.02	734
2287.44	724
2288.86	776
2290.28	758
2291.7	760
2293.12	742
2294.54	758
2295.95	748
2297.37	758
2298.79	758
2300.21	788
2301.62	758
2303.04	788
2304.46	776
2305.88	758
2307.29	770
2308.71	770
2310.12	778
2311.54	782
2312.95	748
2314.37	732
2315.78	792
2317.2	762
2318.61	772
2320.02	766
2321.44	772
2322.85	802
2324.27	772
2325.68	782
2327.09	832
2328.5	824
2329.92	826
2331.33	804
2332.74	786
2334.15	772
2335.56	782
2336.97	804
2338.38	802
2339.79	808
2341.2	800
2342.61	792
2344.02	810
2345.43	804
2346.84	814
2348.25	780
2349.66	808
2351.07	824
2352.48	816
2353.88	816
2355.29	844
2356.7	822
2358.11	816
2359.51	820
2360.92	854
2362.32	818
2363.73	806
2365.14	832
2366.54	838
2367.95	826
2369.35	790
2370.76	882
2372.16	820
2373.57	874
2374.97	836
2376.37	862
2377.78	832
2379.18	814
2380.58	854
2381.99	848
2383.39	858
2384.79	814
2386.19	862
2387.59	838
2389	830
2390.4	828
2391.8	818
2393.2	872
2394.6	894
2396	856
2397.4	894
2398.8	866
2400.2	868
2401.6	874
2403	844
2404.39	842
2405.79	872
2407.19	874
2408.59	858
2409.99	876
2411.38	856
2412.78	866
2414.18	878
2415.57	878
2416.97	858
2418.37	894
2419.76	872
2421.16	858
2422.55	856
2423.95	870
2425.34	882
2426.74	894
2428.13	896
2429.53	878
2430.92	864
2432.31	910
2433.71	880
2435.1	888
2436.49	872
2437.89	908
2439.28	906
2440.67	916
2442.06	898
2443.45	912
2444.85	898
2446.24	872
2447.63	892
2449.02	890
2450.41	918
2451.8	896
2453.19	900
2454.58	930
2455.97	870
2457.36	918
2458.75	920
2460.13	888
2461.52	864
2462.91	908
2464.3	874
2465.69	916
2467.07	902
2468.46	886
2469.85	900
2471.24	850
2472.62	866
2474.01	920
2475.39	876
2476.78	926
2478.16	894
2479.55	884
2480.94	872
2482.32	860
2483.7	872
2485.09	870
2486.47	884
2487.85	912
2489.24	856
2490.62	852
2492	884
2493.39	886
2494.77	936
2496.15	884
2497.53	910
2498.92	934
2500.3	878
2501.68	852
2503.06	864
2504.44	898
2505.82	870
2507.2	886
2508.58	916
2509.96	894
2511.34	874
2512.72	878
2514.1	886
2515.48	886
2516.85	846
2518.23	862
2519.61	918
2520.99	912
2522.37	884
2523.74	844
2525.12	892
2526.5	856
2527.87	856
2529.25	886
2530.63	896
2532	896
2533.38	904
2534.75	864
2536.13	868
2537.5	890
2538.88	858
2540.25	866
2541.62	904
2543	878
2544.37	872
2545.75	892
2547.12	876
2548.49	874
2549.86	862
2551.24	872
2552.61	906
2553.98	872
2555.35	876
2556.72	926
2558.09	870
2559.47	892
2560.84	874
2562.21	908
2563.57	902
2564.95	876
2566.32	898
2567.68	892
2569.05	916
2570.42	894
2571.79	872
2573.16	910
2574.53	904
2575.9	878
2577.26	902
2578.63	922
2580	896
2581.36	902
2582.73	888
2584.1	920
2585.46	906
2586.83	890
2588.19	902
2589.56	900
2590.93	916
2592.29	884
2593.66	906
2595.02	940
2596.39	964
2597.75	910
2599.11	940
2600.47	942
2601.84	952
2603.2	898
2604.56	936
2605.93	926
2607.29	902
2608.65	918
2610.01	944
2611.38	972
2612.74	900
2614.1	964
2615.46	928
2616.82	968
2618.18	966
2619.54	972
2620.9	976
2622.26	994
2623.62	928
2624.98	1000
2626.34	980
2627.69	968
2629.05	962
2630.41	1000
2631.77	982
2633.13	1022
2634.48	938
2635.84	966
2637.2	982
2638.56	984
2639.91	1004
2641.27	1024
2642.62	976
2643.98	988
2645.33	1004
2646.69	1018
2648.05	980
2649.4	1036
2650.75	1092
2652.11	982
2653.46	1026
2654.82	1046
2656.17	1076
2657.52	1086
2658.88	1112
2660.23	1102
2661.58	1100
2662.94	1086
2664.29	1062
2665.64	1086
2666.99	1064
2668.34	1070
2669.69	1108
2671.04	1074
2672.39	1072
2673.75	1096
2675.09	1118
2676.45	1146
2677.79	1126
2679.14	1104
2680.49	1160
2681.84	1120
2683.19	1130
2684.54	1136
2685.89	1116
2687.24	1124
2688.58	1166
2689.93	1148
2691.28	1168
2692.63	1118
2693.97	1110
2695.32	1122
2696.67	1142
2698.01	1132
2699.36	1110
2700.7	1144
2702.05	1118
2703.39	1124
2704.74	1102
2706.08	1134
2707.43	1144
2708.77	1104
2710.12	1146
2711.46	1126
2712.8	1094
2714.15	1158
2715.49	1096
2716.83	1104
2718.17	1126
2719.52	1114
2720.86	1154
2722.2	1108
2723.54	1136
2724.88	1106
2726.22	1124
2727.57	1104
2728.91	1072
2730.25	1074
2731.59	1088
2732.93	1058
2734.27	1084
2735.61	1076
2736.95	1040
2738.28	1090
2739.62	1048
2740.96	1054
2742.3	1038
2743.64	1014
2744.98	1042
2746.31	998
2747.65	1030
2748.99	1010
2750.33	1028
2751.66	1022
2753	1080
2754.33	1030
2755.67	1006
2757.01	1038
2758.34	1012
2759.68	986
2761.01	996
2762.35	1016
2763.68	1010
2765.01	1000
2766.35	1030
2767.68	1024
2769.02	1030
2770.35	992
2771.68	1014
2773.02	976
2774.35	1016
2775.68	986
2777.01	996
2778.35	972
2779.68	1006
2781.01	1032
2782.34	980
2783.67	998
2785	990
2786.33	986
2787.66	986
2788.99	970
2790.32	1036
2791.65	990
2792.98	1016
2794.31	1010
2795.64	1014
2796.97	978
2798.3	1020
2799.62	1012
2800.95	962
2802.28	1012
2803.61	996
2804.93	992
2806.26	1020
2807.59	1012
2808.91	1004
2810.24	1022
2811.57	1002
2812.89	990
2814.22	1030
2815.54	974
2816.87	974
2818.19	1004
2819.52	1006
2820.84	988
2822.17	984
2823.49	1020
2824.81	988
2826.14	976
2827.46	1030
2828.78	1020
2830.11	1034
2831.43	1000
2832.75	1002
2834.07	1014
2835.39	990
2836.72	1038
2838.04	1026
2839.36	1028
2840.68	1034
2842	994
2843.32	988
2844.64	1028
2845.96	1010
2847.28	1028
2848.6	998
2849.92	994
2851.24	1054
2852.56	1048
2853.88	1046
2855.19	1056
2856.51	990
2857.83	1040
2859.15	1020
2860.46	1022
2861.78	1022
2863.1	1024
2864.42	1018
2865.73	1056
2867.05	1030
2868.36	1012
2869.68	1010
2871	994
2872.31	1086
2873.63	1030
2874.94	1044
2876.26	1034
2877.57	1008
2878.88	1048
2880.2	1020
2881.51	1050
2882.82	1014
2884.14	1038
2885.45	1026
2886.76	1064
2888.08	1050
2889.39	1038
2890.7	1074
2892.01	1064
2893.33	1052
2894.64	1064
2895.95	1060
2897.26	1034
2898.57	1064
2899.88	1042
2901.19	1082
2902.5	1084
2903.81	1078
2905.12	1092
2906.43	1072
2907.74	1048
2909.05	1070
2910.35	1046
2911.66	1076
2912.97	1072
2914.28	1086
2915.59	1044
2916.89	1104
2918.2	1059.94
2919.51	1054.17
2920.82	1055.51
2922.12	1093.93
2923.43	1106.52
2924.73	1077.56
2926.04	1071.92
2927.35	1073.21
2928.65	1055.28
2929.96	1090.59
2931.26	1108.4
2932.57	1092.29
2933.87	1081.3
2935.17	1081.28
2936.48	1097.34
2937.78	1108.87
2939.09	1098.6
2940.39	1106.3
2941.69	1106.47
2943	1080.27
2944.3	1104.1
2945.6	1076.22
2946.9	1096.48
2948.2	1084.7
2949.51	1080.41
2950.81	1068.1
2952.11	1077.95
2953.41	1091.56
2954.71	1092.17
2956.01	1119.92
2957.31	1082.8
2958.61	1101.55
2959.91	1125.57
2961.21	1108.95
2962.51	1125.37
2963.81	1114.63
2965.11	1107.89
2966.41	1108.81
2967.71	1096.14
2969.01	1075.59
2970.3	1109.16
2971.6	1097.37
2972.9	1078.88
2974.2	1099.39
2975.49	1087.59
2976.79	1083.89
2978.09	1099.74
2979.39	1093.18
2980.68	1080.97
2981.98	1079.93
2983.27	1100.81
2984.57	1113.48
2985.86	1108.2
2987.16	1101.69
2988.45	1115.37
2989.75	1105.57
2991.04	1089.84
2992.34	1117.31
2993.63	1102.82
2994.93	1087.62
2996.22	1099.2
2997.51	1088.11
2998.81	1111.59
3000.1	1087.56
3001.39	1085.03
3002.68	1120.42
3003.98	1087.98
3005.27	1143.34
3006.56	1132.43
3007.85	1107.65
3009.14	1125.18
3010.43	1117.62
3011.72	1131.91
3013.01	1117.02
3014.31	1101.75
3015.59	1082.33
3016.89	1133.16
3018.18	1136.88
3019.47	1115.21
3020.75	1144.77
3022.04	1097.62
3023.33	1108.3
3024.62	1126.99
3025.91	1128.89
3027.2	1138.53
3028.48	1138.03
3029.77	1144.91
3031.06	1127.75
3032.35	1103.64
3033.64	1126.39
3034.92	1108.66
3036.21	1141.88
3037.5	1148.6
3038.78	1111.62
3040.07	1132.23
3041.35	1151.98
3042.64	1163.02
3043.92	1151.47
3045.21	1128.76
3046.49	1157.34
3047.78	1158.04
3048.11	1154
3049.4	1170
3050.69	1140
3051.98	1164
3053.27	1152
3054.56	1170
3055.85	1146
3057.14	1108
3058.43	1156
3059.72	1148
3061.01	1176
3062.29	1160
3063.58	1178
3064.87	1138
3066.16	1136
3067.44	1180
3068.73	1152
3070.02	1202
3071.31	1182
3072.59	1148
3073.88	1172
3075.16	1164
3076.45	1170
3077.73	1190
3079.02	1150
3080.31	1176
3081.59	1154
3082.87	1166
3084.16	1170
3085.44	1160
3086.73	1170
3088.01	1174
3089.29	1212
3090.58	1202
3091.86	1180
3093.14	1182
3094.43	1176
3095.71	1176
3096.99	1210
3098.27	1184
3099.55	1164
3100.84	1154
3102.12	1188
3103.4	1170
3104.68	1188
3105.96	1186
3107.24	1212
3108.52	1226
3109.8	1210
3111.08	1214
3112.36	1240
3113.64	1210
3114.92	1202
3116.2	1192
3117.48	1198
3118.75	1228
3120.03	1208
3121.31	1232
3122.59	1176
3123.87	1218
3125.14	1216
3126.42	1204
3127.7	1214
3128.97	1240
3130.25	1246
3131.53	1202
3132.8	1218
3134.08	1236
3135.35	1200
3136.63	1262
3137.9	1226
3139.18	1244
3140.45	1282
3141.73	1248
3143	1216
3144.28	1246
3145.55	1222
3146.82	1264
3148.1	1244
3149.37	1240
3150.64	1228
3151.92	1260
3153.19	1252
3154.46	1234
3155.73	1276
3157.01	1248
3158.28	1264
3159.55	1296
3160.82	1262
3162.09	1266
3163.36	1284
3164.63	1274
3165.9	1284
3167.17	1264
3168.44	1262
3169.71	1254
3170.98	1306
3172.25	1306
3173.52	1252
3174.79	1294
3176.06	1250
3177.32	1306
3178.59	1308
3179.86	1254
3181.13	1284
3182.4	1278
3183.66	1298
3184.93	1298
3186.2	1276
3187.46	1240
3188.73	1272
3190	1250
3191.26	1282
3192.53	1334
3193.79	1324
3195.06	1306
3196.32	1296
3197.59	1316
3198.85	1282
3200.12	1340
3201.38	1302
3202.65	1284
3203.91	1302
3205.17	1296
3206.44	1302
3207.7	1322
3208.96	1306
3210.23	1328
3211.49	1300
3212.75	1298
3214.01	1318
3215.27	1318
3216.54	1336
3217.8	1354
3219.06	1328
3220.32	1356
3221.58	1310
3222.84	1304
3224.1	1272
3225.36	1322
3226.62	1346
3227.88	1318
3229.14	1330
3230.4	1308
3231.66	1322
3232.92	1326
3234.18	1306
3235.44	1328
3236.69	1390
3237.95	1354
3239.21	1344
3240.47	1362
3241.72	1334
3242.98	1336
3244.24	1310
3245.5	1342
3246.75	1378
3248.01	1338
3249.26	1332
3250.52	1362
3251.78	1336
3253.03	1334
3254.29	1342
3255.54	1336
3256.8	1324
3258.05	1336
3259.3	1362
3260.56	1308
3261.81	1364
3263.07	1362
3264.32	1346
3265.57	1398
3266.83	1378
3268.08	1350
3269.33	1330
3270.58	1384
3271.84	1390
3273.09	1406
3274.34	1382
3275.59	1356
3276.84	1374
3278.09	1396
3279.35	1386
3280.6	1364
3281.85	1370
3283.1	1400
3284.35	1374
3285.6	1406
3286.85	1404
3288.1	1414
3289.35	1340
3290.59	1344
3291.84	1378
3293.09	1378
3294.34	1400
3295.59	1372
3296.84	1426
3298.08	1428
3299.33	1358
3300.58	1410
3301.83	1408
3303.07	1426
3304.32	1426
3305.57	1434
3306.81	1440
3308.06	1376
3309.3	1410
3310.55	1440
3311.79	1436
3313.04	1462
3314.29	1470
3315.53	1400
3316.77	1456
3318.02	1430
3319.26	1450
3320.51	1424
3321.75	1430
3322.99	1430
3324.24	1470
3325.48	1438
3326.72	1482
3327.97	1426
3329.21	1452
3330.45	1466
3331.69	1434
3332.93	1488
3334.18	1440
3335.42	1470
3336.66	1474
3337.9	1522
3339.14	1444
3340.38	1446
3341.62	1438
3342.86	1418
3344.1	1490
3345.34	1448
3346.58	1468
3347.82	1460
3349.06	1494
3350.3	1462
3351.54	1474
3352.77	1430
3354.01	1462
3355.25	1448
3356.49	1496
3357.73	1480
3358.96	1456
3360.2	1480
3361.44	1460
3362.67	1482
3363.91	1454
3365.15	1472
3366.38	1472
3367.62	1482
3368.85	1464
3370.09	1436
3371.33	1492
3372.56	1490
3373.8	1444
3375.03	1498
3376.26	1510
3377.5	1474
3378.73	1522
3379.97	1508
3381.2	1510
3382.43	1494
3383.67	1456
3384.9	1490
3386.13	1492
3387.37	1450
3388.6	1514
3389.83	1492
3391.06	1482
3392.29	1548
3393.52	1492
3394.76	1572
3395.99	1504
3397.22	1480
3398.45	1476
3399.68	1520
3400.91	1488
3402.14	1500
3403.37	1542
3404.6	1552
3405.83	1536
3407.06	1538
3408.29	1522
3409.51	1562
3410.74	1574
3411.97	1538
3413.2	1556
3414.43	1526
3415.66	1550
3416.88	1540
3418.11	1582
3419.34	1582
3420.56	1552
3421.79	1536
3423.02	1568
3424.24	1582
3425.47	1556
3426.7	1566
3427.92	1632
3429.15	1568
3430.37	1558
3431.6	1584
3432.82	1572
3434.05	1610
3435.27	1630
3436.5	1620
3437.72	1602
3438.94	1622
3440.17	1626
3441.39	1572
3442.61	1518
3443.84	1640
3445.06	1626
3446.28	1626
3447.51	1630
3448.73	1618
3449.95	1634
3451.17	1630
3452.39	1638
3453.61	1636
3454.83	1622
3456.06	1650
3457.28	1616
3458.5	1664
3459.72	1676
3460.94	1640
3462.16	1676
3463.38	1636
3464.6	1632
3465.82	1676
3467.04	1702
3468.25	1646
3469.47	1646
3470.69	1636
3471.91	1652
3473.13	1634
3474.34	1674
3475.56	1674
3476.78	1684
3478	1682
3479.21	1688
3480.43	1652
3481.65	1664
3482.86	1688
3484.08	1654
3485.3	1680
3486.51	1692
3487.73	1670
3488.94	1638
3490.16	1636
3491.37	1672
3492.59	1682
3493.8	1654
3495.02	1686
3496.23	1628
3497.45	1686
3498.66	1706
3499.87	1726
3501.09	1640
3502.3	1650
3503.51	1626
3504.72	1700
3505.94	1698
3507.15	1686
3508.36	1696
3509.57	1694
3510.79	1690
3512	1670
3513.21	1696
3514.42	1682
3515.63	1658
3516.84	1686
3518.05	1712
3519.26	1644
3520.47	1696
3521.68	1674
3522.89	1714
3524.1	1708
3525.31	1656
3526.52	1664
3527.73	1718
3528.94	1644
3530.14	1684
3531.35	1628
3532.56	1684
3533.77	1664
3534.98	1680
3536.18	1666
3537.39	1658
3538.6	1654
3539.81	1664
3541.01	1658
3542.22	1674
3543.42	1742
3544.63	1694
3545.84	1698
3547.04	1682
3548.25	1672
3549.45	1676
3550.66	1714
3551.86	1730
3553.07	1698
3554.27	1710
3555.47	1700
3556.68	1706
3557.88	1722
3559.09	1712
3560.29	1736
3561.49	1718
3562.7	1690
3563.9	1736
3565.1	1722
3566.3	1752
3567.51	1672
3568.71	1782
3569.91	1754
3571.11	1796
3572.31	1738
3573.51	1752
3574.71	1700
3575.92	1774
3577.12	1742
3578.32	1712
3579.52	1744
3580.72	1764
3581.92	1768
3583.12	1798
3584.31	1752
3585.51	1782
3586.71	1802
3587.91	1772
3589.11	1796
3590.31	1794
3591.51	1788
3592.71	1800
3593.9	1806
3595.1	1792
3596.3	1830
3597.49	1820
3598.69	1840
3599.89	1834
3601.08	1800
3602.28	1824
3603.48	1834
3604.67	1780
3605.87	1732
3607.06	1808
3608.26	1802
3609.45	1858
3610.65	1820
3611.84	1846
3613.04	1834
3614.23	1808
3615.43	1826
3616.62	1798
3617.82	1852
3619.01	1824
3620.2	1860
3621.39	1808
3622.59	1812
3623.78	1852
3624.97	1884
3626.17	1836
3627.36	1836
3628.55	1870
3629.74	1828
3630.93	1876
3632.12	1872
3633.31	1878
3634.51	1896
3635.7	1834
3636.89	1840
3638.08	1792
3639.27	1848
3640.46	1854
3641.65	1852
3642.84	1850
3644.03	1894
3645.22	1866
3646.4	1884
3647.59	1872
3648.78	1852
3649.97	1852
3651.16	1884
3652.35	1898
3653.53	1820
3654.72	1824
3655.91	1890
3657.1	1830
3658.28	1866
3659.47	1824
3660.66	1886
3661.84	1866
3663.03	1856
3664.21	1842
3665.4	1842
3666.59	1818
3667.77	1846
3668.96	1876
3670.14	1872
3671.33	1892
3672.51	1892
3673.69	1848
3674.88	1854
3676.06	1810
3677.25	1888
3678.43	1852
3679.61	1836
3680.8	1846
3681.98	1890
3683.16	1876
3684.34	1814
3685.53	1858
3686.71	1886
3687.89	1842
3689.07	1892
3690.25	1914
3691.44	1884
3692.62	1846
3693.8	1874
3694.98	1858
3696.16	1870
3697.34	1886
3698.52	1914
3699.7	1850
3700.88	1888
3702.06	1900
3703.24	1952
3704.42	1916
3705.6	1888
3706.78	1884
3707.96	1900
3709.13	1944
3710.31	1902
3711.49	1892
3712.67	1900
3713.85	1890
3715.02	1892
3716.2	1886
3717.38	1960
3718.56	1924
3719.73	1906
3720.91	1872
3722.08	1914
3723.26	1896
3724.44	1928
3725.61	1936
3726.79	1958
3727.96	1922
3729.14	1938
3730.31	1982
3731.49	1990
3732.66	1986
3733.84	1982
3735.01	1954
3736.18	1972
3737.36	2020
3738.53	2014
3739.7	1914
3740.88	2004
3742.05	1964
3743.22	1992
3744.4	1994
3745.57	2008
3746.74	2002
3747.91	1986
3749.09	2026
3750.26	1964
3751.43	1988
3752.6	2026
3753.77	2066
3754.94	2008
3756.11	1986
3757.28	2008
3758.45	2026
3759.62	2062
3760.79	2026
3761.96	2006
3763.13	2042
3764.3	2016
3765.47	2012
3766.64	2000
3767.81	2006
3768.98	1982
3770.14	2076
3771.31	2014
3772.48	2038
3773.65	2040
3774.82	2030
3775.98	2028
3777.15	2050
3778.32	2008
3779.48	2052
3780.65	1986
3781.82	1996
3782.98	2066
3784.15	2054
3785.32	2028
3786.48	2012
3787.65	2008
3788.81	2102
3789.98	2034
3791.14	2070
3792.3	2102
3793.47	2016
3794.63	2016
3795.8	2004
3796.96	2060
3798.13	2022
3799.29	2044
3800.45	2072
3801.61	2032
3802.78	2046
3803.94	2090
3805.1	2048
3806.27	2048
3807.43	2032
3808.59	2028
3809.75	2024
3810.91	2062
3812.07	2062
3813.24	2032
3814.4	2074
3815.56	1982
3816.72	2062
3817.88	2042
3819.04	2002
3820.2	2038
3821.36	2014
3822.52	2030
3823.68	2038
3824.84	2034
3826	2008
3827.15	1978
3828.31	2084
3829.47	2060
3830.63	2026
3831.79	2046
3832.95	2058
3834.1	2058
3835.26	2050
3836.42	2048
3837.58	1994
3838.73	2066
3839.89	2060
3841.04	2052
3842.2	2050
3843.36	2020
3844.51	2098
3845.67	2068
3846.83	2014
3847.98	2034
3849.14	2036
3850.29	2044
3851.45	2054
3852.6	2120
3853.76	1998
3854.91	2096
3856.06	2048
3857.22	2088
3858.37	2030
3859.52	2086
3860.68	2102
3861.83	2032
3862.98	2068
3864.14	2076
3865.29	2132
3866.44	2104
3867.59	2072
3868.75	2096
3869.9	2104
3871.05	2088
3872.2	2136
3873.35	2070
3874.5	2084
3875.65	2090
3876.8	2088
3877.95	2088
3879.1	2100
3880.25	2088
3881.4	2080
3882.55	2146
3883.7	2076
3884.85	2134
3886	2130
3887.15	2162
3888.3	2172
3889.45	2126
3890.6	2120
3891.75	2182
3892.89	2176
3894.04	2202
3895.19	2184
3896.34	2164
3897.48	2108
3898.63	2174
3899.78	2188
3900.92	2174
3902.07	2190
3903.22	2168
3904.36	2224
3905.51	2176
3906.65	2194
3907.8	2214
3908.94	2186
3910.09	2208
3911.23	2228
3912.38	2202
3913.52	2196
3914.67	2158
3915.81	2160
3916.96	2180
3918.1	2202
3919.24	2164
3920.39	2208
3921.53	2198
3922.67	2202
3923.82	2208
3924.96	2242
3926.1	2210
3927.24	2222
3928.39	2240
3929.53	2214
3930.67	2210
3931.81	2210
3932.95	2284
3934.09	2164
3935.24	2242
3936.38	2228
3937.52	2186
3938.66	2234
3939.8	2230
3940.94	2224
3942.08	2198
3943.22	2246
3944.36	2212
3945.5	2198
3946.63	2240
3947.77	2188
3948.91	2228
3950.05	2206
3951.19	2198
3952.33	2222
3953.47	2206
3954.6	2182
3955.74	2190
3956.88	2208
3958.02	2246
3959.15	2250
3960.29	2206
3961.43	2240
3962.56	2274
3963.7	2236
3964.84	2242
3965.97	2242
3967.11	2212
3968.24	2198
3969.38	2198
3970.51	2274
3971.65	2232
3972.78	2256
3973.92	2222
3975.05	2238
3976.19	2262
3977.32	2256
3978.45	2200
3979.59	2202
3980.72	2202
3981.85	2204
3982.99	2248
3984.12	2258
3985.25	2236
3986.39	2204
3987.52	2184
3988.65	2222
3989.78	2298
3990.91	2244
3992.05	2240
3993.18	2250
3994.31	2216
3995.44	2218
3996.57	2200
3997.7	2248
3998.83	2230
3999.96	2256
