#Acq. time (s)=	20
#Accumulations=	2
#Range (cm-¹)=	50...4000
#Windows=	3
#Autofocus=	Off
#AutoExposure=	Off
#Spike filter=	Multiple accum.
#Delay time (s)=	0
#Binning=	1
#Readout mode=	Signal
#DeNoise=	Off
#ICS correction=	Off
#Dark correction=	Off
#Inst. Process=	Off
#Instrument=	LabRAM HR Evol
#Detector=	Syncerity OE
#Objective=	x100_VIS
#Grating=	600 (500nm)
#ND Filter=	100%
#Laser=	532nm_Edge
#Hole=	100.021
#Range=	Visible
#Project=	Omar
#Sample=	
#Site=	21-09-22
#Title=	 CN-Sastre
#Remark=	
#Date=	21.09.2022 13:38
#Acquired=	21.09.2022 13:38:08
51.0918	42
52.9354	40
54.7807	46
56.6235	56
58.4681	84
60.3102	120
62.154	178
63.9954	236
65.8385	304
67.6792	376
69.5216	452
71.3615	634
73.2032	790
75.0424	1004
76.8834	1106
78.7218	1208
80.5621	1358
82.3998	1568
84.2393	1656
86.0764	1732
87.9152	1818
89.7515	1866
91.5874	1888
93.4251	1814
95.2603	1806
97.0973	1856
98.9318	1802
100.766	1802
102.602	1844
104.435	1890
106.27	1960
108.103	1968
109.936	1862
111.77	1888
113.601	1970
115.433	1912
117.266	1886
119.096	1894
120.926	1886
122.758	1910
124.588	1824
126.417	1854
128.246	1822
130.076	1824
131.904	1832
133.732	1794
135.561	1796
137.388	1840
139.215	1874
141.041	1796
142.869	1864
144.695	1864
146.52	1882
148.345	1838
150.171	1812
151.995	1890
153.819	1838
155.642	1840
157.465	1762
159.29	1820
161.112	1854
162.934	1818
164.756	1802
166.577	1734
168.398	1788
170.219	1734
172.041	1756
173.861	1766
175.68	1720
177.499	1766
179.318	1732
181.137	1706
182.955	1740
184.772	1714
186.592	1780
188.409	1748
190.225	1716
192.042	1744
193.857	1728
195.673	1716
197.488	1664
199.303	1698
201.118	1684
202.932	1696
204.746	1702
206.559	1674
208.372	1714
210.185	1656
211.997	1696
213.809	1670
215.621	1666
217.432	1648
219.243	1688
221.054	1650
222.864	1658
224.674	1616
226.483	1602
228.293	1630
230.101	1608
231.91	1636
233.718	1618
235.524	1628
237.331	1630
239.138	1636
240.945	1620
242.751	1678
244.557	1670
246.363	1636
248.168	1612
249.971	1614
251.776	1624
253.58	1618
255.384	1640
257.188	1618
258.991	1630
260.792	1632
262.594	1636
264.396	1628
266.198	1634
268	1602
269.799	1658
271.599	1620
273.4	1622
275.2	1628
277	1660
278.797	1634
280.596	1662
282.395	1662
284.193	1656
285.989	1628
287.786	1590
289.584	1648
291.378	1614
293.175	1588
294.971	1640
296.765	1614
298.561	1630
300.356	1658
302.148	1652
303.943	1654
305.737	1678
307.529	1670
309.322	1686
311.115	1660
312.906	1652
314.698	1680
316.49	1690
318.28	1676
320.071	1690
321.86	1696
323.651	1674
325.441	1698
327.229	1670
329.019	1690
330.806	1688
332.595	1708
334.381	1700
336.17	1678
337.955	1642
339.743	1728
341.528	1712
343.315	1684
345.099	1668
346.885	1706
348.669	1666
350.455	1748
352.238	1720
354.022	1726
355.805	1718
357.589	1690
359.371	1738
361.154	1736
362.935	1716
364.718	1724
366.498	1682
368.278	1692
370.06	1734
371.839	1766
373.62	1732
375.398	1752
377.177	1756
378.956	1744
380.734	1736
382.513	1796
384.29	1772
386.067	1768
387.845	1742
389.621	1792
391.396	1766
393.173	1758
394.948	1768
396.723	1796
398.499	1784
400.273	1778
402.046	1774
403.819	1782
405.594	1750
407.366	1764
409.138	1802
410.91	1760
412.683	1800
414.454	1766
416.225	1738
417.995	1734
419.768	1746
421.537	1756
423.307	1740
425.076	1756
426.844	1756
428.615	1760
430.382	1744
432.15	1748
433.917	1758
435.684	1774
437.451	1738
439.219	1752
440.985	1802
442.751	1778
444.516	1806
446.281	1784
448.045	1720
449.81	1824
451.574	1740
453.337	1828
455.102	1798
456.865	1814
458.628	1782
460.39	1818
462.152	1768
463.913	1790
465.674	1786
467.435	1772
469.196	1746
470.956	1764
472.716	1752
474.475	1744
476.234	1764
477.993	1742
479.752	1756
481.51	1768
483.268	1784
485.025	1690
486.782	1760
488.539	1750
490.295	1688
492.051	1706
493.807	1708
495.563	1704
497.316	1674
499.07	1718
500.825	1694
502.579	1712
504.333	1694
506.086	1660
507.839	1700
509.592	1718
511.344	1684
513.094	1670
514.846	1716
516.597	1692
518.349	1710
520.099	1730
521.85	1740
523.598	1792
525.347	1818
527.097	1800
528.846	1850
530.595	1892
532.341	1900
534.089	1980
535.837	2028
537.584	2058
539.329	2130
541.076	2142
542.822	2184
544.568	2222
546.312	2270
548.057	2268
549.802	2330
551.545	2384
553.289	2380
555.033	2370
556.775	2372
558.518	2364
560.261	2428
562.002	2374
563.744	2318
565.487	2364
567.226	2330
568.968	2338
570.709	2286
572.447	2264
574.188	2228
575.926	2208
577.665	2194
579.405	2242
581.142	2214
582.88	2140
584.617	2086
586.355	2112
588.091	2062
589.828	2038
591.565	2020
593.3	2036
595.036	2018
596.77	1972
598.506	1964
600.239	1916
601.974	1906
603.707	1866
605.442	1874
607.174	1822
608.905	1830
610.639	1764
612.37	1778
614.103	1756
615.833	1728
617.565	1662
619.295	1776
621.026	1656
622.755	1654
624.484	1648
626.215	1660
627.943	1624
629.67	1626
631.4	1600
633.127	1654
634.856	1584
636.582	1540
638.308	1588
640.036	1546
641.762	1530
643.487	1534
645.214	1502
646.938	1522
648.662	1470
650.386	1472
652.112	1448
653.835	1450
655.558	1412
657.282	1404
659.005	1398
660.726	1364
662.448	1368
664.171	1304
665.892	1334
667.613	1290
669.333	1306
671.053	1298
672.774	1276
674.494	1262
676.213	1234
677.931	1204
679.649	1192
681.369	1214
683.087	1196
684.804	1132
686.521	1144
688.238	1120
689.954	1086
691.67	1110
693.386	1082
695.103	1088
696.818	1068
698.533	1058
700.247	1026
701.961	988
703.675	1006
705.389	1002
707.102	1014
708.814	980
710.527	948
712.239	970
713.951	986
715.662	964
717.373	928
719.084	906
720.795	954
722.505	962
724.215	956
725.924	928
727.633	938
729.342	954
731.051	912
732.759	920
734.467	896
736.174	906
737.882	858
739.589	920
741.295	900
742.999	872
744.705	908
746.411	914
748.116	904
749.821	908
751.526	920
753.23	948
754.934	896
756.636	914
758.34	932
760.043	954
761.745	952
763.448	906
765.148	960
766.85	992
768.551	962
770.252	992
771.953	972
773.652	962
775.352	964
777.052	970
778.751	956
780.448	960
782.147	964
783.846	970
785.544	1010
787.24	936
788.938	990
790.635	966
792.33	970
794.027	966
795.723	984
797.417	948
799.113	960
800.808	940
802.501	914
804.196	916
805.89	940
807.582	896
809.276	926
810.968	868
812.661	836
814.354	872
816.044	880
817.736	854
819.426	842
821.118	832
822.807	814
824.498	818
826.186	786
827.877	796
829.565	778
831.254	830
832.942	760
834.631	762
836.317	740
838.006	732
839.692	766
841.38	724
843.065	722
844.752	750
846.437	758
848.123	710
849.808	736
851.493	734
853.177	718
854.86	714
856.545	750
858.228	706
859.912	726
861.594	698
863.276	698
864.959	722
866.64	742
868.321	690
870.003	770
871.683	712
873.363	712
875.044	740
876.723	708
878.402	720
880.083	690
881.761	700
883.439	714
885.116	748
886.795	724
888.472	718
890.149	740
891.825	692
893.503	732
895.179	718
896.854	710
898.529	722
900.204	782
901.88	772
903.555	768
905.228	772
906.902	774
908.575	786
910.25	808
911.922	814
913.595	834
915.266	828
916.938	830
918.609	812
920.28	872
921.951	856
923.623	878
925.293	886
926.963	910
928.633	894
930.302	942
931.97	922
933.639	948
935.307	988
936.975	998
938.642	992
940.31	998
941.977	1028
943.643	1030
945.31	1062
946.976	1070
948.641	1024
950.307	1028
951.972	1058
953.636	1056
955.301	1060
956.965	1028
958.629	1062
960.292	1058
961.955	1066
963.618	1060
965.279	1082
966.941	1080
968.603	1038
970.265	1050
971.926	1044
973.587	1062
975.248	1076
976.908	1010
978.566	1076
980.226	1108
981.886	1066
983.545	1064
985.204	1134
986.86	1170
988.519	1152
990.177	1142
991.834	1124
993.491	1138
995.147	1178
996.803	1178
998.46	1184
1000.12	1194
1001.77	1174
1003.43	1192
1005.08	1194
1006.73	1222
1008.39	1190
1010.04	1202
1011.7	1260
1013.35	1276
1015	1200
1016.65	1294
1018.3	1270
1019.96	1286
1021.61	1322
1023.26	1316
1024.91	1338
1026.56	1412
1028.21	1362
1029.86	1426
1031.51	1402
1033.16	1440
1034.81	1436
1036.46	1450
1038.1	1502
1039.75	1500
1041.4	1524
1043.05	1564
1044.69	1584
1046.34	1610
1047.99	1614
1049.63	1576
1051.28	1640
1052.92	1676
1054.57	1710
1056.21	1764
1057.86	1702
1059.5	1794
1061.14	1792
1062.79	1848
1064.43	1868
1066.07	1914
1067.72	1948
1069.36	2014
1071	1996
1072.64	2030
1074.28	2018
1075.92	2032
1077.57	2124
1079.2	2164
1080.84	2152
1082.48	2132
1084.12	2196
1085.76	2262
1087.4	2164
1089.04	2252
1090.68	2286
1092.32	2268
1093.95	2272
1095.59	2314
1097.22	2276
1098.86	2252
1100.5	2282
1102.13	2246
1103.77	2228
1105.4	2168
1107.04	2168
1108.67	2124
1110.31	2092
1111.94	2076
1113.58	1954
1115.21	1992
1116.84	1948
1118.47	1854
1120.1	1870
1121.74	1808
1123.37	1830
1125	1704
1126.63	1712
1128.26	1660
1129.89	1630
1131.52	1600
1133.15	1642
1134.78	1562
1136.41	1478
1138.04	1504
1139.67	1422
1141.3	1432
1142.92	1392
1144.55	1394
1146.18	1360
1147.8	1382
1149.43	1328
1151.06	1268
1152.68	1280
1154.31	1276
1155.93	1242
1157.56	1210
1159.18	1168
1160.81	1178
1162.43	1132
1164.06	1158
1165.68	1124
1167.3	1116
1168.93	1070
1170.55	1096
1172.17	1066
1173.79	1014
1175.41	1044
1177.03	1022
1178.66	998
1180.28	1022
1181.9	994
1183.52	986
1185.14	960
1186.75	916
1188.37	898
1189.99	908
1191.61	906
1193.23	864
1194.85	892
1196.46	842
1198.08	836
1199.7	828
1201.31	850
1202.93	814
1204.55	800
1206.16	806
1207.78	810
1209.39	788
1211.01	770
1212.62	754
1214.24	768
1215.85	746
1217.46	724
1219.08	742
1220.69	724
1222.3	732
1223.91	704
1225.53	728
1227.14	698
1228.75	662
1230.36	714
1231.97	698
1233.58	656
1235.19	650
1236.8	680
1238.41	686
1240.02	662
1241.63	700
1243.23	674
1244.84	658
1246.45	660
1248.06	660
1249.67	656
1251.27	668
1252.88	690
1254.48	700
1256.09	668
1257.7	668
1259.3	660
1260.91	658
1262.51	630
1264.12	648
1265.72	688
1267.32	656
1268.93	698
1270.53	642
1272.13	664
1273.73	634
1275.34	678
1276.94	676
1278.54	720
1280.14	654
1281.74	672
1283.35	656
1284.94	660
1286.54	704
1288.15	685
1289.74	666
1291.34	664
1292.94	724
1294.54	688
1296.14	674
1297.74	682
1299.33	672
1300.93	648
1302.53	656
1304.12	670
1305.72	646
1307.32	664
1308.91	672
1310.51	682
1312.1	692
1313.7	652
1315.29	698
1316.89	646
1318.48	660
1320.07	646
1321.67	676
1323.26	696
1324.85	696
1326.45	672
1328.04	710
1329.63	678
1331.22	684
1332.81	658
1334.4	686
1335.99	702
1337.58	678
1339.17	656
1340.77	664
1342.35	664
1343.94	652
1345.53	688
1347.12	702
1348.71	680
1350.3	694
1351.88	636
1353.47	670
1355.06	658
1356.64	684
1358.23	664
1359.82	694
1361.4	678
1362.99	666
1364.57	684
1366.16	690
1367.74	658
1369.33	674
1370.91	698
1372.49	668
1374.08	662
1375.66	676
1377.24	650
1378.82	652
1380.41	688
1381.99	690
1383.57	660
1385.15	680
1386.73	680
1388.31	670
1389.89	648
1391.47	672
1393.05	686
1394.63	698
1396.21	642
1397.79	684
1399.37	684
1400.95	664
1402.52	660
1404.1	682
1405.68	670
1407.25	682
1408.83	656
1410.41	662
1411.98	680
1413.56	680
1415.13	688
1416.71	648
1418.29	672
1419.86	682
1421.43	672
1423.01	648
1424.58	692
1426.15	706
1427.73	666
1429.3	680
1430.87	684
1432.44	694
1434.02	710
1435.59	700
1437.16	690
1438.73	716
1440.3	680
1441.87	728
1443.44	712
1445.01	676
1446.58	660
1448.15	676
1449.72	656
1451.29	706
1452.85	732
1454.42	680
1455.99	694
1457.56	708
1459.12	666
1460.69	718
1462.26	650
1463.82	702
1465.39	676
1466.95	684
1468.52	674
1470.08	710
1471.65	684
1473.21	684
1474.78	720
1476.34	648
1477.9	682
1479.47	688
1481.03	684
1482.59	680
1484.16	676
1485.72	714
1487.28	704
1488.84	696
1490.4	712
1491.96	706
1493.52	678
1495.08	730
1496.64	728
1498.2	732
1499.76	716
1501.32	718
1502.88	676
1504.44	714
1506	708
1507.55	694
1509.11	704
1510.67	710
1512.22	728
1513.78	702
1515.34	744
1516.89	726
1518.45	686
1520.01	666
1521.56	706
1523.11	700
1524.67	722
1526.22	716
1527.78	676
1529.33	726
1530.88	738
1532.44	702
1533.99	694
1535.54	702
1537.09	706
1538.65	706
1540.2	710
1541.75	656
1543.3	682
1544.85	678
1546.4	702
1547.95	688
1549.5	716
1551.05	686
1552.6	706
1554.15	710
1555.7	746
1557.25	716
1558.79	692
1560.34	718
1561.89	694
1563.43	724
1564.98	694
1566.53	702
1568.08	694
1569.62	720
1571.17	726
1572.71	736
1574.26	716
1575.8	730
1577.35	690
1578.89	724
1580.43	762
1581.98	702
1583.52	708
1585.06	706
1586.61	728
1588.15	726
1589.69	722
1591.23	694
1592.77	712
1594.32	696
1595.86	718
1597.4	694
1598.94	686
1600.48	694
1602.02	704
1603.56	702
1605.1	708
1606.64	725.216
1608.18	710.012
1609.71	693.248
1611.25	718.68
1612.79	715.899
1614.33	691.999
1615.86	675.932
1617.4	715.618
1618.94	654.358
1620.47	707.416
1622.01	689.937
1623.55	693.891
1625.08	696.834
1626.62	703.026
1628.15	699.031
1629.69	689.689
1631.22	706.37
1632.75	700.149
1634.29	689.944
1635.82	685.959
1637.35	690.034
1638.89	671.679
1640.42	687.323
1641.95	672.048
1643.48	687.813
1645.02	659.705
1646.55	668.202
1648.08	698.101
1649.61	672.272
1651.14	695.431
1652.67	707.418
1654.2	684.698
1655.73	658.71
1657.26	670.128
1658.79	665.8
1660.32	668.188
1661.84	646.882
1663.37	676.526
1664.9	657.75
1666.43	652.485
1667.96	663.316
1669.48	649.749
1671.01	670.267
1672.54	663.91
1674.06	678.227
1675.59	644.648
1677.11	650.838
1678.64	645.706
1680.16	664.484
1681.69	656.432
1683.21	656.617
1684.74	662.391
1686.26	648.501
1687.79	640.916
1689.31	634.558
1690.83	638.156
1692.35	636.081
1693.88	662.746
1695.4	650.923
1696.92	671.368
1698.44	637.821
1699.96	644.046
1701.48	651.899
1703.01	658.901
1704.53	638.531
1706.05	629.475
1707.57	647.185
1709.09	632.495
1710.6	639.367
1712.12	637.39
1713.64	637.311
1715.16	646.342
1716.68	640.203
1718.2	613.419
1719.71	620.25
1721.23	624.221
1722.75	652.57
1724.27	627.081
1725.78	629.35
1727.3	611.885
1728.81	604.101
1730.33	617.291
1731.84	618.835
1733.36	630.913
1734.88	627.404
1736.39	622.906
1737.9	615.281
1739.42	605.11
1740.93	616.542
1742.44	626.003
1743.96	594.888
1745.47	619.158
1746.98	598.202
1748.49	596.599
1750.01	618.002
1751.52	626.104
1753.03	551.898
1754.54	602.47
1756.05	609.579
1757.56	595.491
1757.63	594
1759.14	614
1760.66	622
1762.18	608
1763.69	608
1765.21	604
1766.72	598
1768.24	594
1769.75	616
1771.27	590
1772.78	594
1774.3	610
1775.81	598
1777.32	586
1778.84	596
1780.35	594
1781.86	612
1783.38	600
1784.89	602
1786.4	606
1787.91	608
1789.42	588
1790.93	594
1792.44	586
1793.95	584
1795.47	604
1796.98	622
1798.48	602
1799.99	642
1801.5	606
1803.01	616
1804.52	616
1806.03	614
1807.54	614
1809.04	580
1810.55	618
1812.06	584
1813.57	604
1815.07	584
1816.58	598
1818.08	588
1819.59	620
1821.09	622
1822.6	578
1824.11	610
1825.61	604
1827.11	594
1828.62	594
1830.12	596
1831.63	600
1833.13	600
1834.63	608
1836.13	588
1837.64	610
1839.14	600
1840.64	610
1842.14	606
1843.64	606
1845.14	600
1846.64	634
1848.14	618
1849.64	620
1851.14	592
1852.64	612
1854.14	612
1855.64	618
1857.14	632
1858.64	582
1860.14	596
1861.64	612
1863.13	604
1864.63	636
1866.13	580
1867.63	602
1869.12	618
1870.62	614
1872.11	610
1873.61	628
1875.1	616
1876.6	624
1878.09	608
1879.59	634
1881.08	600
1882.58	600
1884.07	610
1885.56	618
1887.06	620
1888.55	628
1890.04	620
1891.54	614
1893.03	640
1894.52	634
1896.01	632
1897.5	596
1898.99	616
1900.48	624
1901.97	636
1903.46	602
1904.96	620
1906.44	622
1907.93	606
1909.42	586
1910.91	616
1912.4	624
1913.89	628
1915.38	648
1916.86	642
1918.35	624
1919.84	614
1921.32	632
1922.81	614
1924.3	590
1925.78	632
1927.27	596
1928.76	636
1930.24	628
1931.72	646
1933.21	610
1934.69	608
1936.18	666
1937.66	632
1939.15	632
1940.63	638
1942.11	630
1943.59	640
1945.08	638
1946.56	640
1948.04	620
1949.52	630
1951	618
1952.48	622
1953.97	620
1955.45	602
1956.93	638
1958.41	628
1959.89	602
1961.37	610
1962.85	638
1964.32	614
1965.8	606
1967.28	650
1968.76	612
1970.24	612
1971.71	604
1973.19	606
1974.67	602
1976.15	616
1977.62	608
1979.1	630
1980.57	614
1982.05	634
1983.53	628
1985	620
1986.48	642
1987.95	634
1989.42	620
1990.9	610
1992.37	646
1993.85	628
1995.32	608
1996.79	642
1998.26	604
1999.74	622
2001.21	634
2002.68	644
2004.15	632
2005.62	640
2007.09	628
2008.56	642
2010.03	626
2011.51	614
2012.98	632
2014.44	634
2015.92	632
2017.38	656
2018.85	636
2020.32	614
2021.79	628
2023.26	632
2024.73	648
2026.19	658
2027.66	628
2029.13	632
2030.59	626
2032.06	618
2033.53	652
2034.99	602
2036.46	652
2037.92	638
2039.39	646
2040.85	636
2042.32	666
2043.78	622
2045.25	636
2046.71	624
2048.17	634
2049.64	632
2051.1	658
2052.56	640
2054.02	642
2055.49	644
2056.95	662
2058.41	640
2059.87	628
2061.33	644
2062.79	648
2064.25	634
2065.71	662
2067.17	630
2068.63	624
2070.09	628
2071.55	626
2073.01	636
2074.47	638
2075.93	650
2077.39	672
2078.84	628
2080.3	650
2081.76	648
2083.22	638
2084.67	624
2086.13	672
2087.59	650
2089.04	650
2090.5	626
2091.95	654
2093.41	634
2094.86	628
2096.32	636
2097.77	658
2099.23	638
2100.68	630
2102.13	652
2103.59	616
2105.04	648
2106.49	622
2107.95	628
2109.4	624
2110.85	620
2112.3	652
2113.75	644
2115.21	624
2116.66	646
2118.11	662
2119.56	644
2121.01	644
2122.46	630
2123.91	650
2125.36	668
2126.8	656
2128.25	650
2129.7	650
2131.15	642
2132.6	654
2134.05	648
2135.49	646
2136.94	644
2138.39	640
2139.83	624
2141.28	632
2142.73	652
2144.17	634
2145.62	604
2147.06	640
2148.51	646
2149.95	634
2151.4	666
2152.84	664
2154.29	664
2155.73	636
2157.17	660
2158.62	616
2160.06	626
2161.5	630
2162.95	648
2164.39	650
2165.83	638
2167.27	626
2168.71	650
2170.15	664
2171.59	652
2173.04	638
2174.48	638
2175.92	670
2177.36	674
2178.79	656
2180.24	678
2181.67	662
2183.11	646
2184.55	664
2185.99	656
2187.43	660
2188.86	678
2190.3	664
2191.74	638
2193.18	646
2194.61	638
2196.05	644
2197.49	640
2198.92	634
2200.36	652
2201.79	636
2203.23	628
2204.66	630
2206.1	654
2207.53	656
2208.97	638
2210.4	630
2211.83	652
2213.27	632
2214.7	656
2216.13	626
2217.57	638
2219	650
2220.43	632
2221.86	626
2223.29	654
2224.72	600
2226.15	634
2227.59	620
2229.02	616
2230.45	664
2231.88	626
2233.31	642
2234.74	630
2236.16	646
2237.59	624
2239.02	604
2240.45	632
2241.88	632
2243.31	658
2244.73	614
2246.16	626
2247.59	620
2249.01	626
2250.44	616
2251.87	634
2253.29	628
2254.72	608
2256.15	600
2257.57	646
2259	658
2260.42	636
2261.84	662
2263.27	640
2264.69	628
2266.12	646
2267.54	628
2268.96	602
2270.39	642
2271.81	630
2273.23	646
2274.65	636
2276.07	638
2277.5	628
2278.92	654
2280.34	652
2281.76	616
2283.18	656
2284.6	638
2286.02	670
2287.44	618
2288.86	662
2290.28	650
2291.7	672
2293.12	672
2294.54	660
2295.95	674
2297.37	670
2298.79	650
2300.21	642
2301.62	680
2303.04	650
2304.46	630
2305.88	660
2307.29	652
2308.71	654
2310.12	660
2311.54	692
2312.95	694
2314.37	676
2315.78	652
2317.2	686
2318.61	688
2320.02	668
2321.44	696
2322.85	704
2324.27	704
2325.68	724
2327.09	708
2328.5	720
2329.92	736
2331.33	668
2332.74	708
2334.15	692
2335.56	702
2336.97	734
2338.38	700
2339.79	692
2341.2	694
2342.61	700
2344.02	716
2345.43	726
2346.84	710
2348.25	734
2349.66	730
2351.07	732
2352.48	728
2353.88	734
2355.29	738
2356.7	740
2358.11	756
2359.51	752
2360.92	764
2362.32	762
2363.73	758
2365.14	750
2366.54	768
2367.95	778
2369.35	780
2370.76	770
2372.16	766
2373.57	748
2374.97	770
2376.37	776
2377.78	750
2379.18	796
2380.58	774
2381.99	790
2383.39	780
2384.79	802
2386.19	756
2387.59	798
2389	786
2390.4	786
2391.8	780
2393.2	804
2394.6	810
2396	770
2397.4	802
2398.8	812
2400.2	834
2401.6	796
2403	804
2404.39	820
2405.79	782
2407.19	826
2408.59	826
2409.99	800
2411.38	818
2412.78	832
2414.18	816
2415.57	834
2416.97	828
2418.37	814
2419.76	810
2421.16	808
2422.55	840
2423.95	816
2425.34	828
2426.74	834
2428.13	818
2429.53	832
2430.92	852
2432.31	852
2433.71	826
2435.1	856
2436.49	834
2437.89	848
2439.28	826
2440.67	862
2442.06	842
2443.45	842
2444.85	848
2446.24	864
2447.63	816
2449.02	820
2450.41	860
2451.8	866
2453.19	864
2454.58	826
2455.97	846
2457.36	828
2458.75	838
2460.13	810
2461.52	816
2462.91	826
2464.3	828
2465.69	852
2467.07	816
2468.46	836
2469.85	834
2471.24	818
2472.62	856
2474.01	832
2475.39	814
2476.78	812
2478.16	830
2479.55	838
2480.94	834
2482.32	824
2483.7	816
2485.09	840
2486.47	848
2487.85	832
2489.24	806
2490.62	790
2492	832
2493.39	832
2494.77	812
2496.15	836
2497.53	828
2498.92	836
2500.3	834
2501.68	840
2503.06	840
2504.44	848
2505.82	794
2507.2	830
2508.58	844
2509.96	836
2511.34	816
2512.72	812
2514.1	844
2515.48	830
2516.85	834
2518.23	844
2519.61	798
2520.99	794
2522.37	842
2523.74	836
2525.12	824
2526.5	834
2527.87	808
2529.25	846
2530.63	864
2532	834
2533.38	862
2534.75	840
2536.13	854
2537.5	848
2538.88	830
2540.25	840
2541.62	838
2543	800
2544.37	816
2545.75	832
2547.12	836
2548.49	808
2549.86	828
2551.24	838
2552.61	818
2553.98	846
2555.35	862
2556.72	834
2558.09	854
2559.47	808
2560.84	844
2562.21	838
2563.57	814
2564.95	848
2566.32	844
2567.68	832
2569.05	850
2570.42	828
2571.79	822
2573.16	814
2574.53	828
2575.9	840
2577.26	834
2578.63	862
2580	808
2581.36	858
2582.73	852
2584.1	826
2585.46	808
2586.83	858
2588.19	840
2589.56	846
2590.93	864
2592.29	878
2593.66	848
2595.02	864
2596.39	852
2597.75	842
2599.11	834
2600.47	852
2601.84	828
2603.2	848
2604.56	870
2605.93	834
2607.29	832
2608.65	856
2610.01	880
2611.38	850
2612.74	848
2614.1	874
2615.46	862
2616.82	832
2618.18	870
2619.54	886
2620.9	852
2622.26	818
2623.62	874
2624.98	866
2626.34	862
2627.69	890
2629.05	858
2630.41	870
2631.77	874
2633.13	838
2634.48	860
2635.84	854
2637.2	896
2638.56	918
2639.91	864
2641.27	884
2642.62	840
2643.98	896
2645.33	878
2646.69	902
2648.05	882
2649.4	890
2650.75	884
2652.11	890
2653.46	862
2654.82	874
2656.17	876
2657.52	880
2658.88	878
2660.23	886
2661.58	868
2662.94	896
2664.29	910
2665.64	872
2666.99	902
2668.34	878
2669.69	882
2671.04	874
2672.39	908
2673.75	884
2675.09	876
2676.45	918
2677.79	898
2679.14	886
2680.49	892
2681.84	894
2683.19	872
2684.54	878
2685.89	894
2687.24	914
2688.58	918
2689.93	872
2691.28	904
2692.63	874
2693.97	900
2695.32	896
2696.67	906
2698.01	878
2699.36	866
2700.7	896
2702.05	884
2703.39	878
2704.74	922
2706.08	888
2707.43	912
2708.77	888
2710.12	902
2711.46	874
2712.8	890
2714.15	922
2715.49	876
2716.83	898
2718.17	882
2719.52	872
2720.86	926
2722.2	920
2723.54	920
2724.88	890
2726.22	900
2727.57	872
2728.91	880
2730.25	912
2731.59	910
2732.93	908
2734.27	908
2735.61	896
2736.95	912
2738.28	914
2739.62	932
2740.96	924
2742.3	916
2743.64	942
2744.98	908
2746.31	916
2747.65	892
2748.99	914
2750.33	884
2751.66	906
2753	928
2754.33	924
2755.67	950
2757.01	894
2758.34	912
2759.68	916
2761.01	918
2762.35	926
2763.68	930
2765.01	946
2766.35	936
2767.68	944
2769.02	916
2770.35	942
2771.68	926
2773.02	960
2774.35	960
2775.68	940
2777.01	928
2778.35	960
2779.68	950
2781.01	964
2782.34	986
2783.67	962
2785	960
2786.33	926
2787.66	916
2788.99	974
2790.32	956
2791.65	948
2792.98	926
2794.31	964
2795.64	980
2796.97	976
2798.3	1000
2799.62	970
2800.95	942
2802.28	980
2803.61	930
2804.93	998
2806.26	1012
2807.59	966
2808.91	968
2810.24	976
2811.57	970
2812.89	990
2814.22	980
2815.54	1032
2816.87	986
2818.19	1000
2819.52	958
2820.84	954
2822.17	990
2823.49	966
2824.81	998
2826.14	956
2827.46	1030
2828.78	1016
2830.11	1022
2831.43	1024
2832.75	1028
2834.07	1026
2835.39	998
2836.72	982
2838.04	1018
2839.36	1044
2840.68	996
2842	1000
2843.32	1026
2844.64	1042
2845.96	1024
2847.28	1048
2848.6	1038
2849.92	1036
2851.24	1020
2852.56	1050
2853.88	1078
2855.19	1086
2856.51	1064
2857.83	1066
2859.15	1038
2860.46	1052
2861.78	1066
2863.1	1048
2864.42	1022
2865.73	1032
2867.05	1044
2868.36	1056
2869.68	1002
2871	1070
2872.31	1078
2873.63	1066
2874.94	1046
2876.26	1056
2877.57	1088
2878.88	1066
2880.2	1108
2881.51	1094
2882.82	1088
2884.14	1074
2885.45	1030
2886.76	1116
2888.08	1068
2889.39	1080
2890.7	1054
2892.01	1094
2893.33	1076
2894.64	1064
2895.95	1110
2897.26	1082
2898.57	1086
2899.88	1090
2901.19	1090
2902.5	1090
2903.81	1134
2905.12	1110
2906.43	1058
2907.74	1082
2909.05	1094
2910.35	1086
2911.66	1110
2912.97	1102
2914.28	1102
2915.59	1116
2916.89	1110
2918.2	1101.86
2919.51	1097.49
2920.82	1105.88
2922.12	1111.26
2923.43	1109.3
2924.73	1107.1
2926.04	1105.67
2927.35	1111.5
2928.65	1135.48
2929.96	1113.5
2931.26	1088.45
2932.57	1108.37
2933.87	1078.52
2935.17	1124.88
2936.48	1120.51
2937.78	1103.26
2939.09	1125.46
2940.39	1101.91
2941.69	1133.26
2943	1099.57
2944.3	1124.6
2945.6	1123.66
2946.9	1137.35
2948.2	1119.32
2949.51	1122.94
2950.81	1129.33
2952.11	1131.93
2953.41	1093.1
2954.71	1098.22
2956.01	1107.15
2957.31	1125.29
2958.61	1145.51
2959.91	1153.83
2961.21	1120.19
2962.51	1155.57
2963.81	1156.11
2965.11	1132.46
2966.41	1119.42
2967.71	1140.43
2969.01	1128.67
2970.3	1131.83
2971.6	1161.02
2972.9	1152.17
2974.2	1143.07
2975.49	1125.9
2976.79	1152.32
2978.09	1161.55
2979.39	1171.54
2980.68	1147.83
2981.98	1123.62
2983.27	1154.3
2984.57	1142.08
2985.86	1165.39
2987.16	1168.94
2988.45	1168.8
2989.75	1146.72
2991.04	1140.56
2992.34	1144.43
2993.63	1160.16
2994.93	1164.54
2996.22	1157.11
2997.51	1179.6
2998.81	1162.78
3000.1	1170.96
3001.39	1180.95
3002.68	1167.23
3003.98	1183.08
3005.27	1178.9
3006.56	1180.23
3007.85	1174.33
3009.14	1188.96
3010.43	1163.43
3011.72	1177.05
3013.01	1165.89
3014.31	1169.41
3015.59	1200.77
3016.89	1194.93
3018.18	1187.39
3019.47	1191.84
3020.75	1209.82
3022.04	1214.2
3023.33	1203.69
3024.62	1210.89
3025.91	1209.36
3027.2	1180.11
3028.48	1209.96
3029.77	1220.69
3031.06	1203.31
3032.35	1210.53
3033.64	1208.43
3034.92	1229.29
3036.21	1228.82
3037.5	1226.56
3038.78	1207.92
3040.07	1195.92
3041.35	1221.78
3042.64	1209.94
3043.92	1219.36
3045.21	1220.35
3046.49	1221.32
3047.78	1261.77
3048.11	1276
3049.4	1246
3050.69	1194
3051.98	1250
3053.27	1266
3054.56	1256
3055.85	1234
3057.14	1242
3058.43	1242
3059.72	1248
3061.01	1218
3062.29	1238
3063.58	1266
3064.87	1246
3066.16	1278
3067.44	1268
3068.73	1236
3070.02	1266
3071.31	1250
3072.59	1228
3073.88	1266
3075.16	1284
3076.45	1266
3077.73	1318
3079.02	1268
3080.31	1312
3081.59	1278
3082.87	1252
3084.16	1272
3085.44	1310
3086.73	1302
3088.01	1346
3089.29	1306
3090.58	1264
3091.86	1286
3093.14	1312
3094.43	1310
3095.71	1270
3096.99	1316
3098.27	1308
3099.55	1298
3100.84	1312
3102.12	1272
3103.4	1324
3104.68	1324
3105.96	1332
3107.24	1282
3108.52	1326
3109.8	1312
3111.08	1306
3112.36	1300
3113.64	1304
3114.92	1300
3116.2	1318
3117.48	1326
3118.75	1378
3120.03	1364
3121.31	1364
3122.59	1376
3123.87	1382
3125.14	1310
3126.42	1348
3127.7	1382
3128.97	1386
3130.25	1388
3131.53	1358
3132.8	1338
3134.08	1376
3135.35	1378
3136.63	1394
3137.9	1390
3139.18	1344
3140.45	1382
3141.73	1356
3143	1352
3144.28	1374
3145.55	1394
3146.82	1366
3148.1	1398
3149.37	1434
3150.64	1392
3151.92	1382
3153.19	1406
3154.46	1426
3155.73	1430
3157.01	1454
3158.28	1410
3159.55	1428
3160.82	1396
3162.09	1400
3163.36	1432
3164.63	1432
3165.9	1420
3167.17	1398
3168.44	1448
3169.71	1358
3170.98	1464
3172.25	1476
3173.52	1450
3174.79	1472
3176.06	1470
3177.32	1444
3178.59	1478
3179.86	1486
3181.13	1464
3182.4	1434
3183.66	1478
3184.93	1490
3186.2	1508
3187.46	1478
3188.73	1464
3190	1440
3191.26	1458
3192.53	1458
3193.79	1454
3195.06	1506
3196.32	1492
3197.59	1482
3198.85	1464
3200.12	1476
3201.38	1476
3202.65	1462
3203.91	1502
3205.17	1510
3206.44	1512
3207.7	1494
3208.96	1510
3210.23	1474
3211.49	1490
3212.75	1486
3214.01	1524
3215.27	1530
3216.54	1486
3217.8	1504
3219.06	1504
3220.32	1504
3221.58	1518
3222.84	1472
3224.1	1482
3225.36	1520
3226.62	1538
3227.88	1478
3229.14	1502
3230.4	1534
3231.66	1524
3232.92	1530
3234.18	1516
3235.44	1528
3236.69	1530
3237.95	1560
3239.21	1558
3240.47	1496
3241.72	1534
3242.98	1520
3244.24	1512
3245.5	1540
3246.75	1498
3248.01	1550
3249.26	1562
3250.52	1534
3251.78	1552
3253.03	1564
3254.29	1566
3255.54	1534
3256.8	1556
3258.05	1544
3259.3	1600
3260.56	1560
3261.81	1586
3263.07	1604
3264.32	1600
3265.57	1580
3266.83	1578
3268.08	1566
3269.33	1594
3270.58	1562
3271.84	1586
3273.09	1596
3274.34	1646
3275.59	1616
3276.84	1596
3278.09	1576
3279.35	1620
3280.6	1640
3281.85	1620
3283.1	1576
3284.35	1604
3285.6	1600
3286.85	1650
3288.1	1604
3289.35	1650
3290.59	1628
3291.84	1638
3293.09	1646
3294.34	1628
3295.59	1664
3296.84	1630
3298.08	1650
3299.33	1630
3300.58	1648
3301.83	1640
3303.07	1698
3304.32	1640
3305.57	1686
3306.81	1694
3308.06	1668
3309.3	1676
3310.55	1670
3311.79	1708
3313.04	1676
3314.29	1670
3315.53	1678
3316.77	1686
3318.02	1732
3319.26	1700
3320.51	1686
3321.75	1710
3322.99	1680
3324.24	1748
3325.48	1718
3326.72	1722
3327.97	1698
3329.21	1728
3330.45	1766
3331.69	1712
3332.93	1760
3334.18	1728
3335.42	1722
3336.66	1734
3337.9	1710
3339.14	1744
3340.38	1748
3341.62	1694
3342.86	1794
3344.1	1736
3345.34	1730
3346.58	1748
3347.82	1770
3349.06	1756
3350.3	1742
3351.54	1724
3352.77	1770
3354.01	1798
3355.25	1752
3356.49	1750
3357.73	1712
3358.96	1728
3360.2	1766
3361.44	1740
3362.67	1782
3363.91	1750
3365.15	1770
3366.38	1754
3367.62	1812
3368.85	1762
3370.09	1786
3371.33	1782
3372.56	1796
3373.8	1756
3375.03	1712
3376.26	1814
3377.5	1818
3378.73	1768
3379.97	1834
3381.2	1810
3382.43	1824
3383.67	1774
3384.9	1812
3386.13	1792
3387.37	1800
3388.6	1802
3389.83	1802
3391.06	1818
3392.29	1790
3393.52	1776
3394.76	1808
3395.99	1810
3397.22	1796
3398.45	1840
3399.68	1870
3400.91	1814
3402.14	1852
3403.37	1812
3404.6	1830
3405.83	1882
3407.06	1844
3408.29	1838
3409.51	1822
3410.74	1850
3411.97	1838
3413.2	1794
3414.43	1874
3415.66	1860
3416.88	1850
3418.11	1892
3419.34	1868
3420.56	1878
3421.79	1938
3423.02	1898
3424.24	1876
3425.47	1902
3426.7	1910
3427.92	1844
3429.15	1928
3430.37	1944
3431.6	1898
3432.82	1942
3434.05	1944
3435.27	1946
3436.5	1924
3437.72	1920
3438.94	1926
3440.17	1994
3441.39	1956
3442.61	1946
3443.84	1966
3445.06	1990
3446.28	1966
3447.51	1922
3448.73	1990
3449.95	1950
3451.17	2012
3452.39	1984
3453.61	1974
3454.83	1980
3456.06	1994
3457.28	1972
3458.5	2012
3459.72	1972
3460.94	2018
3462.16	2042
3463.38	1988
3464.6	2026
3465.82	1952
3467.04	2016
3468.25	2026
3469.47	2024
3470.69	2008
3471.91	2012
3473.13	2054
3474.34	2010
3475.56	2040
3476.78	2028
3478	2050
3479.21	2044
3480.43	2034
3481.65	2004
3482.86	2052
3484.08	2068
3485.3	2054
3486.51	2028
3487.73	2024
3488.94	2016
3490.16	2050
3491.37	2030
3492.59	2058
3493.8	1980
3495.02	2018
3496.23	2034
3497.45	2040
3498.66	2092
3499.87	2060
3501.09	2046
3502.3	2054
3503.51	2032
3504.72	2070
3505.94	2062
3507.15	2082
3508.36	2026
3509.57	2086
3510.79	2036
3512	2050
3513.21	2116
3514.42	2010
3515.63	2076
3516.84	2050
3518.05	2068
3519.26	2060
3520.47	2038
3521.68	2066
3522.89	2058
3524.1	2034
3525.31	2042
3526.52	2074
3527.73	2054
3528.94	2068
3530.14	2078
3531.35	2108
3532.56	2088
3533.77	2080
3534.98	2046
3536.18	2060
3537.39	2084
3538.6	2090
3539.81	2090
3541.01	2062
3542.22	2118
3543.42	2100
3544.63	2080
3545.84	2074
3547.04	2104
3548.25	2146
3549.45	2108
3550.66	2114
3551.86	2062
3553.07	2090
3554.27	2120
3555.47	2098
3556.68	2100
3557.88	2054
3559.09	2144
3560.29	2184
3561.49	2160
3562.7	2140
3563.9	2128
3565.1	2176
3566.3	2154
3567.51	2120
3568.71	2148
3569.91	2180
3571.11	2152
3572.31	2154
3573.51	2158
3574.71	2174
3575.92	2176
3577.12	2156
3578.32	2186
3579.52	2122
3580.72	2200
3581.92	2214
3583.12	2188
3584.31	2184
3585.51	2202
3586.71	2184
3587.91	2148
3589.11	2212
3590.31	2222
3591.51	2228
3592.71	2224
3593.9	2252
3595.1	2242
3596.3	2256
3597.49	2258
3598.69	2280
3599.89	2240
3601.08	2204
3602.28	2252
3603.48	2264
3604.67	2260
3605.87	2274
3607.06	2254
3608.26	2282
3609.45	2288
3610.65	2292
3611.84	2340
3613.04	2328
3614.23	2358
3615.43	2326
3616.62	2288
3617.82	2332
3619.01	2282
3620.2	2316
3621.39	2292
3622.59	2280
3623.78	2350
3624.97	2318
3626.17	2334
3627.36	2336
3628.55	2334
3629.74	2328
3630.93	2364
3632.12	2318
3633.31	2340
3634.51	2328
3635.7	2320
3636.89	2366
3638.08	2314
3639.27	2320
3640.46	2324
3641.65	2278
3642.84	2384
3644.03	2316
3645.22	2328
3646.4	2380
3647.59	2290
3648.78	2382
3649.97	2336
3651.16	2372
3652.35	2362
3653.53	2348
3654.72	2366
3655.91	2346
3657.1	2316
3658.28	2358
3659.47	2356
3660.66	2332
3661.84	2332
3663.03	2344
3664.21	2348
3665.4	2302
3666.59	2336
3667.77	2300
3668.96	2376
3670.14	2320
3671.33	2352
3672.51	2296
3673.69	2362
3674.88	2356
3676.06	2320
3677.25	2332
3678.43	2352
3679.61	2392
3680.8	2332
3681.98	2366
3683.16	2324
3684.34	2400
3685.53	2398
3686.71	2356
3687.89	2414
3689.07	2346
3690.25	2370
3691.44	2368
3692.62	2362
3693.8	2372
3694.98	2404
3696.16	2354
3697.34	2412
3698.52	2430
3699.7	2370
3700.88	2352
3702.06	2406
3703.24	2350
3704.42	2424
3705.6	2326
3706.78	2448
3707.96	2396
3709.13	2402
3710.31	2412
3711.49	2402
3712.67	2376
3713.85	2420
3715.02	2476
3716.2	2488
3717.38	2470
3718.56	2486
3719.73	2470
3720.91	2382
3722.08	2398
3723.26	2418
3724.44	2424
3725.61	2438
3726.79	2478
3727.96	2512
3729.14	2468
3730.31	2470
3731.49	2440
3732.66	2470
3733.84	2466
3735.01	2482
3736.18	2472
3737.36	2526
3738.53	2494
3739.7	2480
3740.88	2532
3742.05	2462
3743.22	2528
3744.4	2526
3745.57	2494
3746.74	2532
3747.91	2508
3749.09	2550
3750.26	2568
3751.43	2496
3752.6	2548
3753.77	2592
3754.94	2576
3756.11	2546
3757.28	2620
3758.45	2560
3759.62	2624
3760.79	2632
3761.96	2560
3763.13	2584
3764.3	2584
3765.47	2570
3766.64	2562
3767.81	2566
3768.98	2580
3770.14	2610
3771.31	2606
3772.48	2610
3773.65	2604
3774.82	2644
3775.98	2632
3777.15	2558
3778.32	2634
3779.48	2604
3780.65	2602
3781.82	2608
3782.98	2608
3784.15	2626
3785.32	2606
3786.48	2580
3787.65	2632
3788.81	2628
3789.98	2596
3791.14	2622
3792.3	2610
3793.47	2646
3794.63	2622
3795.8	2574
3796.96	2650
3798.13	2600
3799.29	2634
3800.45	2640
3801.61	2620
3802.78	2624
3803.94	2620
3805.1	2606
3806.27	2660
3807.43	2618
3808.59	2636
3809.75	2654
3810.91	2628
3812.07	2682
3813.24	2656
3814.4	2626
3815.56	2612
3816.72	2586
3817.88	2656
3819.04	2596
3820.2	2614
3821.36	2652
3822.52	2670
3823.68	2586
3824.84	2634
3826	2626
3827.15	2640
3828.31	2642
3829.47	2580
3830.63	2616
3831.79	2638
3832.95	2632
3834.1	2680
3835.26	2628
3836.42	2652
3837.58	2644
3838.73	2664
3839.89	2678
3841.04	2624
3842.2	2670
3843.36	2628
3844.51	2590
3845.67	2634
3846.83	2648
3847.98	2672
3849.14	2650
3850.29	2698
3851.45	2658
3852.6	2660
3853.76	2616
3854.91	2674
3856.06	2682
3857.22	2660
3858.37	2696
3859.52	2674
3860.68	2608
3861.83	2704
3862.98	2682
3864.14	2714
3865.29	2662
3866.44	2740
3867.59	2708
3868.75	2710
3869.9	2748
3871.05	2784
3872.2	2716
3873.35	2704
3874.5	2766
3875.65	2760
3876.8	2760
3877.95	2724
3879.1	2788
3880.25	2756
3881.4	2776
3882.55	2786
3883.7	2806
3884.85	2734
3886	2760
3887.15	2776
3888.3	2764
3889.45	2764
3890.6	2768
3891.75	2792
3892.89	2774
3894.04	2820
3895.19	2818
3896.34	2796
3897.48	2828
3898.63	2844
3899.78	2838
3900.92	2824
3902.07	2814
3903.22	2830
3904.36	2828
3905.51	2766
3906.65	2784
3907.8	2870
3908.94	2850
3910.09	2792
3911.23	2858
3912.38	2862
3913.52	2898
3914.67	2898
3915.81	2860
3916.96	2826
3918.1	2816
3919.24	2878
3920.39	2856
3921.53	2876
3922.67	2866
3923.82	2880
3924.96	2870
3926.1	2900
3927.24	2940
3928.39	2892
3929.53	2844
3930.67	2876
3931.81	2842
3932.95	2876
3934.09	2888
3935.24	2888
3936.38	2894
3937.52	2868
3938.66	2890
3939.8	2872
3940.94	2848
3942.08	2872
3943.22	2892
3944.36	2802
3945.5	2862
3946.63	2914
3947.77	2868
3948.91	2890
3950.05	2864
3951.19	2906
3952.33	2884
3953.47	2880
3954.6	2944
3955.74	2902
3956.88	2940
3958.02	2866
3959.15	2922
3960.29	2896
3961.43	2852
3962.56	2870
3963.7	2956
3964.84	2882
3965.97	2866
3967.11	2918
3968.24	2922
3969.38	2920
3970.51	2856
3971.65	2918
3972.78	2876
3973.92	2874
3975.05	2900
3976.19	2928
3977.32	2904
3978.45	2904
3979.59	2900
3980.72	2846
3981.85	2876
3982.99	2906
3984.12	2882
3985.25	2920
3986.39	2894
3987.52	2946
3988.65	2884
3989.78	2952
3990.91	2928
3992.05	2932
3993.18	2936
3994.31	2888
3995.44	2898
3996.57	2858
3997.7	2916
3998.83	2944
3999.96	2950
