#Acq. time (s)=	5
#Accumulations=	2
#Range (cm-¹)=	200...3500
#Windows=	4
#Autofocus=	Off
#AutoExposure=	Off
#Spike filter=	Multiple accum.
#Delay time (s)=	0
#Binning=	1
#Readout mode=	Signal
#DeNoise=	Off
#ICS correction=	Off
#Dark correction=	Off
#Inst. Process=	Off
#Instrument=	LabRAM HR Evol
#Detector=	Syncerity OE
#Objective=	x100_VIS
#Grating=	600 (500nm)
#ND Filter=	100%
#Laser=	633nm_Edge
#Hole=	100.021
#Range=	Visible
#Project=	Pammela
#Sample=	
#Site=	06-10-22
#Title=	PR6S1E
#Remark=	
#Date=	06.10.2022 19:19
#Acquired=	06.10.2022 19:19:18
200.937	1334
202.205	1346
203.47	1390
204.737	1548
206.003	1680
207.27	1828
208.536	1948
209.8	2254
211.066	2384
212.332	2584
213.597	2686
214.86	2684
216.125	2492
217.39	2302
218.653	2148
219.917	1922
221.181	1760
222.445	1522
223.708	1406
224.971	1272
226.234	1154
227.496	1088
228.759	970
230.02	944
231.282	894
232.544	834
233.805	770
235.067	748
236.329	728
237.588	696
238.85	680
240.109	678
241.37	600
242.631	600
243.89	608
245.15	600
246.408	572
247.668	542
248.926	574
250.186	514
251.443	526
252.702	532
253.959	482
255.218	506
256.475	478
257.733	480
258.99	466
260.247	440
261.503	476
262.761	456
264.016	442
265.273	442
266.529	444
267.784	440
269.04	420
270.295	444
271.551	416
272.805	414
274.059	414
275.314	408
276.568	414
277.821	438
279.076	418
280.329	416
281.583	414
282.836	406
284.088	388
285.342	402
286.594	406
287.846	406
289.097	406
290.35	402
291.602	428
292.853	422
294.105	418
295.355	426
296.606	436
297.856	402
299.107	406
300.357	426
301.607	412
302.856	426
304.105	436
305.356	434
306.605	444
307.853	454
309.102	454
310.35	472
311.599	466
312.847	466
314.095	484
315.342	476
316.589	510
317.836	530
319.083	544
320.33	590
321.577	614
322.824	706
324.07	804
325.315	848
326.561	990
327.806	1070
329.051	1122
330.296	1094
331.541	1042
332.786	890
334.03	798
335.274	828
336.518	858
337.762	892
339.006	864
340.249	744
341.492	612
342.735	524
343.978	476
345.221	438
346.463	440
347.705	430
348.947	416
350.189	402
351.43	410
352.672	406
353.913	384
355.154	388
356.393	392
357.634	390
358.874	400
360.114	394
361.354	390
362.594	382
363.834	386
365.072	388
366.311	398
367.55	396
368.789	396
370.027	408
371.266	398
372.502	392
373.74	408
374.978	398
376.216	410
377.452	406
378.689	442
379.926	438
381.163	460
382.398	470
383.634	516
384.87	572
386.106	656
387.341	796
388.576	1002
389.812	1242
391.046	1222
392.281	1180
393.515	904
394.749	740
395.983	608
397.217	520
398.45	456
399.684	458
400.917	408
402.149	404
403.383	408
404.614	394
405.847	408
407.08	414
408.311	496
409.543	610
410.774	746
412.005	704
413.236	568
414.467	472
415.697	426
416.928	400
418.157	390
419.388	388
420.617	366
421.847	406
423.076	380
424.306	388
425.534	362
426.764	378
427.992	372
429.221	400
430.448	370
431.677	362
432.904	386
434.131	388
435.359	382
436.585	390
437.813	380
439.039	390
440.265	352
441.492	374
442.718	384
443.943	392
445.17	412
446.395	384
447.619	378
448.845	416
450.07	406
451.294	448
452.519	444
453.743	470
454.966	504
456.191	510
457.414	570
458.637	644
459.86	708
461.084	872
462.307	1012
463.529	1120
464.751	1254
465.973	1114
467.196	1034
468.417	872
469.638	748
470.859	642
472.08	598
473.302	548
474.523	502
475.743	490
476.963	462
478.183	454
479.402	450
480.622	420
481.841	426
483.062	390
484.28	420
485.499	400
486.718	406
487.936	412
489.154	390
490.372	406
491.59	398
492.807	386
494.025	382
495.242	402
496.459	420
497.675	412
498.892	444
500.108	538
501.325	726
502.541	1012
503.756	1098
504.972	908
506.187	664
507.402	526
508.618	438
509.832	422
511.047	400
512.261	384
513.476	388
514.688	366
515.902	390
517.116	386
518.329	402
519.543	374
520.756	374
521.969	360
523.181	370
524.392	380
525.605	360
526.817	354
528.029	358
529.24	348
530.451	350
531.662	358
532.873	364
534.084	370
535.293	332
536.504	348
537.714	356
538.925	368
540.133	352
541.343	358
542.553	362
543.762	350
544.97	336
546.179	358
547.388	354
548.595	356
549.804	354
551.012	358
552.219	356
553.426	360
554.634	374
555.84	356
557.048	354
558.253	370
559.46	356
560.667	366
561.872	364
563.078	370
564.283	376
565.489	352
566.695	352
567.899	370
569.105	340
570.308	354
571.514	348
572.717	358
573.922	374
575.125	368
576.329	372
577.532	374
578.736	374
579.938	376
581.141	370
582.343	356
583.545	368
584.748	368
585.949	380
587.152	364
588.353	380
589.555	398
590.756	390
591.956	390
593.158	400
594.358	394
595.557	400
596.758	422
597.958	440
599.157	454
600.358	504
601.557	526
602.755	542
603.955	618
605.154	564
606.352	528
607.551	498
608.749	466
609.946	440
611.144	422
612.342	414
613.539	414
614.736	402
615.933	428
617.13	452
618.327	464
619.523	488
620.719	522
621.914	592
623.11	700
624.306	842
625.502	1004
626.696	1102
627.891	1102
629.086	990
630.28	820
631.474	732
632.67	630
633.863	592
635.057	554
636.25	512
637.444	534
638.637	538
639.83	546
641.022	542
642.215	586
643.407	644
644.599	704
645.791	794
646.983	1010
648.174	1272
649.366	1802
650.557	2458
651.748	2714
652.939	2424
654.129	1732
655.32	1212
656.51	962
657.7	786
658.89	714
660.079	658
661.269	604
662.458	584
663.647	552
664.835	530
666.023	524
667.212	536
668.4	528
669.589	550
670.777	514
671.964	536
673.151	542
674.338	534
675.525	568
676.712	574
677.899	592
679.084	592
680.271	588
681.457	610
682.643	626
683.829	618
685.014	610
686.199	624
687.385	618
688.568	624
689.753	638
690.938	634
692.123	634
693.306	632
694.49	618
695.674	600
696.857	592
698.041	578
699.224	606
700.406	582
701.589	616
702.771	610
703.954	620
705.136	646
706.317	744
707.499	836
708.68	1000
709.862	1312
711.044	1376
712.224	1090
713.405	792
714.585	628
715.766	556
716.945	514
718.126	528
719.305	516
720.485	540
721.663	546
722.843	532
724.021	534
725.201	556
726.379	556
727.558	612
728.735	556
729.914	572
731.091	576
732.268	590
733.446	576
734.623	574
735.801	550
736.977	552
738.153	540
739.33	512
740.506	518
741.681	500
742.858	500
744.033	514
745.208	508
746.384	482
747.559	470
748.733	458
749.909	464
751.083	438
752.257	432
753.43	422
754.605	434
755.779	438
756.952	432
758.125	410
759.299	418
760.471	406
761.644	398
762.816	384
763.988	396
765.161	416
766.333	394
767.504	406
768.676	386
769.847	392
771.018	414
772.188	408
773.36	398
774.531	404
775.701	420
776.871	434
778.041	400
779.21	446
780.38	442
781.549	464
782.718	476
783.887	492
785.056	506
786.224	552
787.393	608
788.561	690
789.729	830
790.897	1012
792.064	1302
793.232	1714
794.399	2244
795.566	2758
796.733	3204
797.9	2932
799.066	2396
800.233	1900
801.399	1418
802.565	1122
803.731	970
804.896	858
806.061	754
807.226	688
808.391	680
809.556	640
810.721	612
811.885	590
813.048	566
814.212	564
815.376	576
816.54	570
817.704	590
818.866	624
820.029	634
821.192	640
822.355	716
823.518	664
824.679	672
825.842	704
827.004	666
828.165	686
829.326	704
830.488	726
831.65	788
832.81	926
833.971	1074
835.132	1062
836.291	898
837.452	704
838.612	650
839.771	588
840.931	566
842.089	554
843.249	578
844.409	576
845.567	616
846.726	672
847.883	730
849.042	826
850.199	924
851.358	1066
852.516	1408
853.673	1798
854.831	2368
855.987	3256
857.145	3962
858.301	4040
859.458	3426
860.613	2544
861.769	1884
862.926	1406
864.081	1152
865.237	910
866.392	780
867.548	696
868.702	620
869.856	566
871.012	546
872.165	502
873.32	474
874.474	438
875.627	426
876.782	450
877.935	422
879.088	412
880.242	408
881.394	394
882.546	374
883.7	388
884.852	358
886.003	390
887.156	374
888.307	378
889.459	384
890.61	342
891.762	386
892.912	354
894.063	364
895.213	360
896.363	376
897.515	366
898.664	370
899.814	356
900.963	362
902.113	376
903.262	366
904.412	366
905.561	380
906.709	358
907.857	356
909.006	368
910.154	372
911.301	394
912.449	386
913.597	374
914.744	378
915.891	372
917.039	354
918.186	380
919.333	372
920.479	350
921.625	372
922.771	392
923.917	362
925.063	360
926.208	382
927.354	362
928.497	388
929.642	368
930.787	344
931.932	376
933.076	360
934.221	348
935.365	362
936.509	364
937.652	332
938.796	346
939.939	376
941.081	364
942.224	342
943.367	348
944.51	374
945.652	406
946.795	432
947.936	464
949.078	484
950.219	428
951.361	394
952.502	360
953.642	378
954.784	368
955.924	370
957.065	366
958.204	374
959.345	392
960.485	390
961.624	430
962.764	478
963.903	526
965.042	646
966.181	754
967.32	996
968.458	1140
969.597	1124
970.735	1012
971.873	742
973.011	638
974.148	534
975.286	478
976.423	428
977.56	418
978.697	416
979.833	388
980.97	380
982.106	388
983.242	366
984.378	388
985.514	390
986.649	364
987.785	366
988.92	384
990.055	384
991.19	342
992.325	388
993.459	384
994.594	386
995.727	402
996.862	380
997.995	374
999.128	394
1000.26	394
1001.39	398
1002.53	428
1003.66	424
1004.79	414
1005.93	456
1007.06	460
1008.19	474
1009.32	470
1010.45	462
1011.58	476
1012.72	530
1013.85	550
1014.98	592
1016.11	592
1017.24	600
1018.37	566
1019.5	524
1020.63	492
1021.76	482
1022.89	462
1024.02	440
1025.15	424
1026.28	434
1027.41	418
1028.54	404
1029.66	420
1030.79	392
1031.92	400
1033.05	424
1034.18	432
1035.3	458
1036.43	448
1037.56	422
1038.69	414
1039.81	438
1040.94	402
1042.06	416
1043.19	406
1044.32	414
1045.44	402
1046.57	404
1047.69	410
1048.82	404
1049.94	372
1051.07	364
1052.19	352
1053.32	356
1054.44	360
1055.57	346
1056.69	352
1057.82	344
1058.94	356
1060.06	324
1061.19	332
1062.31	334
1063.43	338
1064.56	342
1065.68	344
1066.8	338
1067.92	336
1069.05	336
1070.17	338
1071.29	358
1072.41	318
1073.53	346
1074.65	342
1075.77	332
1076.89	336
1078.02	336
1079.14	318
1080.26	348
1081.38	356
1082.5	354
1083.62	362
1084.73	344
1085.85	338
1086.97	342
1088.09	322
1089.21	336
1090.33	348
1091.45	352
1092.57	352
1093.69	358
1094.8	364
1095.92	360
1097.04	392
1098.16	426
1099.27	474
1100.39	534
1101.51	630
1102.62	692
1103.74	700
1104.86	676
1105.97	628
1107.09	556
1108.2	494
1109.32	482
1110.43	422
1111.55	406
1112.66	380
1113.78	364
1114.89	366
1116.01	354
1117.12	364
1118.24	368
1119.35	358
1120.46	378
1121.58	376
1122.69	412
1123.8	396
1124.92	398
1126.03	370
1127.14	370
1128.26	350
1129.37	346
1130.48	354
1131.59	362
1132.7	344
1133.81	338
1134.93	348
1136.04	336
1137.15	342
1138.26	342
1139.37	354
1140.48	346
1141.59	340
1142.7	346
1143.81	362
1144.92	362
1146.03	358
1147.14	370
1148.25	352
1149.36	356
1150.47	380
1151.57	368
1152.68	390
1153.79	400
1154.9	372
1156.01	414
1157.12	410
1158.22	422
1159.33	464
1160.44	488
1161.54	510
1162.65	566
1163.76	682
1164.86	952
1165.97	1532
1167.08	2414
1168.18	3272
1169.29	3054
1170.39	2038
1171.5	1186
1172.6	776
1173.71	634
1174.81	522
1175.92	482
1177.02	442
1178.13	412
1179.23	408
1180.34	426
1181.44	410
1182.54	410
1183.65	406
1184.75	426
1185.85	418
1186.96	424
1188.06	432
1189.16	448
1190.26	406
1191.37	420
1192.47	436
1193.57	426
1194.67	408
1195.77	406
1196.87	418
1197.98	426
1199.08	436
1200.18	426
1201.28	448
1202.38	436
1203.48	458
1204.58	492
1205.68	506
1206.78	506
1207.88	542
1208.98	564
1210.08	624
1211.17	648
1212.27	710
1213.37	740
1214.47	820
1215.57	866
1216.67	884
1217.77	934
1218.86	952
1219.96	1026
1221.06	1120
1222.15	1130
1223.25	1168
1224.35	1206
1225.45	1174
1226.54	1236
1227.64	1268
1228.73	1284
1229.83	1436
1230.93	1596
1232.02	1924
1233.12	2500
1234.21	3166
1235.31	3818
1236.4	4388
1237.5	4230
1238.59	3994
1239.69	3202
1240.78	2450
1241.87	1886
1242.97	1514
1244.06	1240
1245.15	1036
1246.25	966
1247.34	982
1248.43	940
1249.53	980
1250.62	1018
1251.71	1078
1252.8	1192
1253.9	1282
1254.99	1458
1256.08	1688
1257.17	1822
1258.26	1706
1259.35	1458
1260.45	1208
1261.54	1010
1262.63	854
1263.72	736
1264.81	722
1265.9	698
1266.99	690
1268.08	746
1269.17	806
1270.26	868
1271.35	1010
1272.44	1202
1273.52	1422
1274.61	1660
1275.7	2006
1276.79	2390
1277.88	2788
1278.97	2866
1280.05	2640
1281.14	2172
1282.23	1734
1283.32	1344
1284.4	1061.63
1285.49	908.2
1286.58	849.11
1287.66	724.532
1288.75	700.825
1289.84	664.696
1290.92	615.24
1292.01	602.439
1293.09	577.01
1294.18	570.32
1295.27	579.599
1296.35	597.382
1297.43	613.282
1298.52	622.067
1299.6	621.225
1300.69	627.803
1301.77	635.947
1302.86	642.294
1303.94	668.45
1305.03	682.161
1306.11	670.828
1307.19	712.318
1308.28	716.759
1309.36	773.324
1310.44	818.097
1311.53	916.469
1312.61	1028.74
1313.69	1182.15
1314.77	1397.33
1315.85	1706.36
1316.94	2129.37
1318.02	2624.85
1319.1	3369.34
1320.18	4269.3
1321.26	5283.97
1322.34	5933.34
1323.42	6300.62
1324.5	6107.74
1325.59	5625.94
1326.67	4958.46
1327.75	4279.07
1328.83	3599.96
1329.91	2941.79
1330.99	2457.36
1332.06	2055.65
1333.14	1733.31
1334.22	1491.84
1335.3	1355.85
1336.38	1201.12
1337.46	1110.94
1338.54	1036.87
1339.62	973.264
1340.69	928.256
1341.77	858.522
1342.85	856.032
1343.93	802.332
1345	782.603
1346.08	748.971
1347.16	726.125
1348.24	700.451
1349.31	689.836
1350.39	704.351
1351.47	708.944
1352.54	728.237
1353.62	737.663
1354.69	763.437
1355.77	791.884
1356.85	838.378
1357.92	893.436
1358.99	967.58
1360.07	1037.45
1361.15	1112.61
1362.22	1197.15
1363.29	1295.44
1364.37	1447.08
1365.44	1635.56
1366.52	1812.44
1367.59	2029.71
1368.66	2235.44
1369.74	2359.26
1370.81	2385.5
1371.88	2364.55
1372.96	2174
1374.03	1965.27
1375.1	1758.62
1376.17	1588.27
1377.25	1408.15
1378.32	1271.95
1379.39	1126.42
1380.46	1047.55
1381.53	942.101
1382.6	874.146
1383.68	829.248
1384.75	781.048
1385.82	712.337
1386.89	689.409
1387.96	636.457
1389.03	619.894
1390.1	599.623
1391.17	579.404
1392.24	558.089
1393.29	558
1394.37	514
1395.44	530
1396.52	512
1397.59	496
1398.67	494
1399.74	470
1400.81	492
1401.89	468
1402.96	454
1404.03	462
1405.11	442
1406.18	442
1407.25	442
1408.33	440
1409.4	470
1410.47	432
1411.54	442
1412.61	430
1413.69	444
1414.76	436
1415.83	454
1416.9	440
1417.97	458
1419.04	448
1420.11	464
1421.18	476
1422.25	476
1423.33	502
1424.4	508
1425.47	486
1426.53	520
1427.6	520
1428.67	530
1429.74	514
1430.81	530
1431.88	502
1432.95	550
1434.02	564
1435.09	568
1436.16	586
1437.22	594
1438.29	590
1439.36	650
1440.43	636
1441.49	670
1442.56	710
1443.63	742
1444.7	762
1445.76	766
1446.83	784
1447.9	764
1448.96	738
1450.03	724
1451.09	678
1452.16	662
1453.22	642
1454.29	618
1455.35	576
1456.42	536
1457.48	528
1458.55	494
1459.61	490
1460.68	448
1461.74	454
1462.81	450
1463.87	442
1464.93	418
1466	422
1467.06	406
1468.12	402
1469.19	392
1470.25	386
1471.31	400
1472.38	386
1473.44	386
1474.5	372
1475.56	368
1476.62	362
1477.69	378
1478.75	356
1479.81	336
1480.87	360
1481.93	338
1482.99	304
1484.05	330
1485.11	326
1486.17	332
1487.23	334
1488.29	334
1489.35	324
1490.41	366
1491.47	338
1492.53	338
1493.59	322
1494.65	334
1495.71	350
1496.77	380
1497.83	376
1498.88	394
1499.94	426
1501	456
1502.06	536
1503.12	608
1504.17	692
1505.23	826
1506.29	854
1507.35	778
1508.4	676
1509.46	594
1510.52	526
1511.57	546
1512.63	552
1513.68	586
1514.74	602
1515.8	566
1516.85	544
1517.91	518
1518.96	456
1520.02	436
1521.07	416
1522.13	408
1523.18	396
1524.23	368
1525.29	388
1526.34	366
1527.4	378
1528.45	386
1529.5	376
1530.56	372
1531.61	390
1532.66	400
1533.72	384
1534.77	394
1535.82	414
1536.87	422
1537.93	388
1538.98	420
1540.03	442
1541.08	456
1542.13	472
1543.19	496
1544.24	532
1545.29	576
1546.34	604
1547.39	654
1548.44	700
1549.49	804
1550.54	914
1551.59	1036
1552.64	1162
1553.69	1350
1554.74	1562
1555.79	1772
1556.84	2010
1557.89	2182
1558.94	2312
1559.98	2386
1561.03	2324
1562.08	2232
1563.13	2054
1564.18	1864
1565.23	1682
1566.27	1530
1567.32	1366
1568.37	1212
1569.42	1088
1570.46	1006
1571.51	916
1572.56	822
1573.6	788
1574.65	714
1575.7	672
1576.74	658
1577.79	638
1578.83	632
1579.88	618
1580.92	572
1581.97	566
1583.02	584
1584.06	588
1585.11	600
1586.15	600
1587.19	592
1588.24	612
1589.28	626
1590.33	648
1591.37	686
1592.41	684
1593.46	748
1594.5	822
1595.54	876
1596.59	956
1597.63	1032
1598.67	1158
1599.71	1292
1600.76	1474
1601.8	1638
1602.84	1868
1603.88	2140
1604.92	2460
1605.97	2892
1607.01	3412
1608.05	3920
1609.09	4250
1610.13	4366
1611.17	4102
1612.21	3774
1613.25	3430
1614.29	3472
1615.33	3684
1616.37	4076
1617.41	4434
1618.45	4690
1619.49	4686
1620.53	4274
1621.57	3824
1622.61	3052
1623.65	2404
1624.69	1932
1625.72	1634
1626.76	1424
1627.8	1296
1628.84	1222
1629.88	1186
1630.91	1150
1631.95	1194
1632.99	1220
1634.03	1304
1635.06	1366
1636.1	1494
1637.14	1596
1638.17	1748
1639.21	1916
1640.24	2100
1641.28	2330
1642.32	2620
1643.35	3048
1644.39	3498
1645.42	4078
1646.46	4732
1647.49	5064
1648.53	5088
1649.56	4670
1650.6	4034
1651.63	3426
1652.67	2824
1653.7	2506
1654.73	2264
1655.77	2080
1656.8	1940
1657.84	1696
1658.87	1472
1659.9	1296
1660.93	1118
1661.97	948
1663	822
1664.03	740
1665.06	666
1666.1	602
1667.13	618
1668.16	582
1669.19	546
1670.22	524
1671.25	484
1672.29	468
1673.32	446
1674.35	428
1675.38	430
1676.41	394
1677.44	382
1678.47	398
1679.5	378
1680.53	358
1681.56	326
1682.59	320
1683.62	310
1684.65	310
1685.68	298
1686.7	292
1687.73	272
1688.76	288
1689.79	288
1690.82	304
1691.85	288
1692.87	274
1693.9	266
1694.93	266
1695.96	282
1696.98	262
1698.01	276
1699.04	256
1700.07	272
1701.09	254
1702.12	266
1703.15	256
1704.17	232
1705.2	246
1706.22	260
1707.25	252
1708.27	240
1709.3	254
1710.32	250
1711.35	256
1712.38	244
1713.4	234
1714.42	242
1715.45	228
1716.47	234
1717.5	246
1718.52	236
1719.55	228
1720.57	244
1721.59	224
1722.62	228
1723.64	224
1724.66	230
1725.68	208
1726.71	234
1727.73	224
1728.75	238
1729.77	244
1730.8	222
1731.82	220
1732.84	234
1733.86	232
1734.88	228
1735.9	218
1736.92	238
1737.95	224
1738.97	224
1739.99	234
1741.01	226
1742.03	222
1743.05	214
1744.07	222
1745.09	232
1746.11	210
1747.13	210
1748.15	222
1749.17	234
1750.18	212
1751.2	234
1752.22	208
1753.24	218
1754.26	222
1755.28	228
1756.29	232
1757.31	218
1758.33	198
1759.35	218
1760.37	218
1761.38	222
1762.4	220
1763.42	230
1764.43	228
1765.45	228
1766.47	242
1767.48	236
1768.5	236
1769.52	218
1770.53	222
1771.55	216
1772.56	222
1773.58	232
1774.59	192
1775.61	222
1776.62	208
1777.64	206
1778.65	218
1779.67	218
1780.68	212
1781.69	206
1782.71	200
1783.72	206
1784.74	206
1785.75	206
1786.76	218
1787.78	204
1788.79	192
1789.8	198
1790.81	192
1791.83	188
1792.84	206
1793.85	200
1794.86	192
1795.88	198
1796.89	204
1797.9	190
1798.91	190
1799.92	200
1800.93	190
1801.94	194
1802.95	196
1803.97	186
1804.98	180
1805.99	200
1807	204
1808.01	212
1809.02	198
1810.03	192
1811.04	192
1812.05	196
1813.05	186
1814.06	190
1815.07	192
1816.08	184
1817.09	194
1818.1	198
1819.11	182
1820.12	202
1821.12	188
1822.13	208
1823.14	196
1824.15	182
1825.15	174
1826.16	192
1827.17	190
1828.17	194
1829.18	192
1830.19	188
1831.19	210
1832.2	194
1833.21	188
1834.21	186
1835.22	188
1836.22	198
1837.23	204
1838.24	204
1839.24	192
1840.25	184
1841.25	208
1842.25	186
1843.26	198
1844.26	200
1845.27	188
1846.27	218
1847.28	196
1848.28	192
1849.28	190
1850.29	208
1851.29	196
1852.29	192
1853.3	202
1854.3	198
1855.3	212
1856.31	178
1857.31	202
1858.31	200
1859.31	190
1860.31	194
1861.32	178
1862.32	182
1863.32	182
1864.32	188
1865.32	200
1866.32	192
1867.32	182
1868.32	192
1869.32	196
1870.32	190
1871.33	186
1872.32	192
1873.32	192
1874.33	174
1875.32	180
1876.32	204
1877.32	178
1878.32	202
1879.32	184
1880.32	196
1881.32	186
1882.32	182
1883.32	184
1884.31	194
1885.31	202
1886.31	186
1887.31	182
1888.31	182
1889.3	178
1890.3	178
1891.3	180
1892.29	180
1893.29	188
1894.29	180
1895.28	178
1896.28	184
1897.28	174
1898.27	190
1899.27	188
1900.26	182
1901.26	178
1902.26	174
1903.25	186
1904.25	196
1905.24	184
1906.24	182
1907.23	184
1908.23	172
1909.22	192
1910.21	184
1911.21	178
1912.2	182
1913.2	174
1914.19	178
1915.18	174
1916.18	166
1917.17	178
1918.16	156
1919.16	178
1920.15	172
1921.14	182
1922.13	186
1923.12	156
1924.12	164
1925.11	176
1926.1	164
1927.09	164
1928.08	170
1929.08	178
1930.07	176
1931.06	180
1932.05	172
1933.04	174
1934.03	166
1935.02	176
1936.01	184
1937	166
1937.99	174
1938.98	176
1939.97	174
1940.96	168
1941.95	170
1942.94	166
1943.93	166
1944.92	184
1945.91	194
1946.89	184
1947.88	158
1948.87	164
1949.86	180
1950.85	176
1951.83	170
1952.82	176
1953.81	170
1954.8	172
1955.78	170
1956.77	158
1957.76	170
1958.74	176
1959.73	174
1960.72	170
1961.7	172
1962.69	178
1963.68	172
1964.66	170
1965.65	166
1966.63	174
1967.62	156
1968.6	154
1969.59	162
1970.57	170
1971.56	162
1972.54	164
1973.53	154
1974.51	170
1975.5	160
1976.48	172
1977.46	172
1978.45	170
1979.43	164
1980.42	166
1981.4	152
1982.38	166
1983.36	170
1984.35	164
1985.33	166
1986.31	144
1987.3	166
1988.28	162
1989.26	158
1990.24	158
1991.22	158
1992.2	158
1993.19	168
1994.17	166
1995.15	162
1996.13	162
1997.11	158
1998.09	172
1999.07	158
2000.05	168
2001.03	160
2002.01	164
2002.99	166
2003.97	156
2004.95	162
2005.93	166
2006.91	166
2007.89	162
2008.87	170
2009.85	154
2010.83	166
2011.81	166
2012.78	170
2013.76	166
2014.74	158
2015.72	156
2016.7	164
2017.67	174
2018.65	166
2019.63	160
2020.61	154
2021.58	164
2022.56	170
2023.54	172
2024.51	182
2025.49	160
2026.47	174
2027.44	172
2028.42	172
2029.4	173
2030.37	174
2031.35	178
2032.32	178
2033.3	174
2034.27	154
2035.25	162
2036.22	166
2037.2	162
2038.17	156
2039.15	154
2040.12	160
2041.1	166
2042.07	164
2043.04	160
2044.02	162
2044.99	166
2045.96	166
2046.94	170
2047.91	162
2048.88	158
2049.86	166
2050.83	160
2051.8	162
2052.77	166
2053.74	160
2054.72	152
2055.69	154
2056.66	168
2057.63	158
2058.6	176
2059.58	162
2060.55	158
2061.52	172
2062.49	170
2063.46	156
2064.43	162
2065.4	152
2066.37	164
2067.34	164
2068.31	158
2069.28	150
2070.25	156
2071.22	154
2072.19	148
2073.16	154
2074.13	168
2075.1	158
2076.07	146
2077.03	148
2078	152
2078.97	146
2079.94	158
2080.91	158
2081.88	154
2082.84	164
2083.81	144
2084.78	156
2085.75	154
2086.71	152
2087.68	144
2088.65	154
2089.61	164
2090.58	160
2091.55	146
2092.51	166
2093.48	166
2094.44	154
2095.41	160
2096.38	160
2097.34	166
2098.31	144
2099.27	146
2100.24	158
2101.2	166
2102.17	152
2103.13	152
2104.1	142
2105.06	148
2106.02	146
2106.99	144
2107.95	160
2108.92	144
2109.88	142
2110.84	138
2111.81	154
2112.77	130
2113.73	136
2114.7	144
2115.66	144
2116.62	142
2117.58	168
2118.55	146
2119.51	142
2120.47	158
2121.43	146
2122.39	128
2123.36	156
2124.32	154
2125.28	150
2126.24	142
2127.2	144
2128.16	130
2129.12	150
2130.08	148
2131.04	146
2132	140
2132.96	136
2133.92	148
2134.88	142
2135.84	146
2136.8	146
2137.76	146
2138.72	126
2139.68	150
2140.64	134
2141.6	142
2142.56	144
2143.52	128
2144.47	140
2145.43	148
2146.39	126
2147.35	132
2148.31	144
2149.26	142
2150.22	130
2151.18	140
2152.14	134
2153.09	136
2154.05	136
2155.01	136
2155.96	134
2156.92	144
2157.88	134
2158.83	128
2159.79	138
2160.74	136
2161.7	134
2162.66	138
2163.61	140
2164.57	134
2165.52	142
2166.48	130
2167.43	136
2168.39	134
2169.34	132
2170.3	122
2171.25	132
2172.2	134
2173.16	132
2174.11	126
2175.07	132
2176.02	132
2176.97	138
2177.93	132
2178.88	126
2179.83	140
2180.78	138
2181.74	136
2182.69	130
2183.64	142
2184.59	142
2185.55	142
2186.5	142
2187.45	146
2188.4	130
2189.35	146
2190.3	142
2191.26	134
2192.21	140
2193.16	132
2194.11	126
2195.06	118
2196.01	142
2196.96	136
2197.91	110
2198.86	126
2199.81	134
2200.76	136
2201.71	134
2202.66	130
2203.61	120
2204.56	130
2205.51	126
2206.46	140
2207.41	136
2208.35	134
2209.3	132
2210.25	132
2211.2	126
2212.15	120
2213.1	130
2214.04	114
2214.99	126
2215.94	130
2216.89	124
2217.83	120
2218.78	130
2219.73	136
2220.67	134
2221.62	126
2222.57	126
2223.51	131.97
2224.46	123.87
2225.41	129.668
2226.35	131.567
2227.3	125.733
2228.24	127.239
2229.19	124.908
2230.14	125.65
2231.08	130.632
2232.02	121.47
2232.97	113.363
2233.92	135.11
2234.86	126.515
2235.8	128.318
2236.75	122.533
2237.69	117.294
2238.64	115.989
2239.58	126.802
2240.52	121.854
2241.47	116.343
2242.41	127.352
2243.36	122.895
2244.3	123.171
2245.24	116.922
2246.18	121.339
2247.13	124.089
2248.07	119.128
2249.01	119.595
2249.95	112.158
2250.9	125.456
2251.84	127.733
2252.78	114.565
2253.72	123.176
2254.66	122.945
2255.61	115.179
2256.55	119.364
2257.49	117.236
2258.43	121.009
2259.37	115.393
2260.31	118.857
2261.25	113.876
2262.19	116.107
2263.13	118.162
2264.07	118.058
2265.01	121.936
2265.95	122.02
2266.89	113.902
2267.83	120.425
2268.77	120.791
2269.71	112.609
2270.65	120.883
2271.59	117.238
2272.53	116.054
2273.47	110.703
2274.41	108.536
2275.34	116.138
2276.28	116.63
2277.22	118.382
2278.16	113.942
2279.1	114.245
2280.04	108.958
2280.97	111.292
2281.91	116.762
2282.85	121.766
2283.79	121.309
2284.72	121.239
2285.66	116.566
2286.6	113.291
2287.53	108.239
2288.47	109.916
2289.41	111.388
2290.34	108.259
2291.28	113.668
2292.22	113.634
2293.15	114.915
2294.09	111.458
2295.02	117.881
2295.96	112.487
2296.89	118.568
2297.83	124.625
2298.76	112.668
2299.7	109.157
2300.63	111.945
2301.57	109.157
2302.5	114.012
2303.44	113.346
2304.37	109.14
2305.3	111.166
2306.24	112.297
2307.17	111.684
2308.11	108.43
2309.04	108.367
2309.97	110.673
2310.91	112.388
2311.84	116.515
2312.77	111.698
2313.7	99.7333
2314.64	101.994
2315.57	113.476
2316.5	106.327
2317.43	107.636
2318.13	112
2319.07	108
2320	98
2320.94	102
2321.88	96
2322.81	100
2323.75	108
2324.68	102
2325.62	112
2326.56	102
2327.49	106
2328.43	118
2329.36	116
2330.3	110
2331.23	114
2332.17	106
2333.1	104
2334.04	114
2334.97	108
2335.91	110
2336.84	104
2337.77	108
2338.71	104
2339.64	110
2340.58	104
2341.51	116
2342.44	118
2343.38	112
2344.31	104
2345.24	120
2346.17	100
2347.11	108
2348.04	100
2348.97	118
2349.9	106
2350.84	110
2351.77	112
2352.7	100
2353.63	104
2354.56	110
2355.5	98
2356.43	114
2357.36	108
2358.29	114
2359.22	110
2360.15	106
2361.08	112
2362.01	118
2362.94	102
2363.87	100
2364.8	98
2365.73	96
2366.66	112
2367.59	104
2368.52	110
2369.45	106
2370.38	108
2371.31	94
2372.24	112
2373.17	98
2374.1	110
2375.02	92
2375.95	112
2376.88	106
2377.81	106
2378.74	104
2379.67	108
2380.59	106
2381.52	102
2382.45	104
2383.38	98
2384.3	94
2385.23	114
2386.16	96
2387.08	108
2388.01	106
2388.94	116
2389.86	114
2390.79	98
2391.72	112
2392.64	112
2393.57	108
2394.49	110
2395.42	114
2396.34	104
2397.27	106
2398.2	108
2399.12	96
2400.04	108
2400.97	106
2401.89	100
2402.82	100
2403.74	106
2404.67	98
2405.59	106
2406.51	104
2407.44	108
2408.36	114
2409.29	100
2410.21	102
2411.13	102
2412.06	98
2412.98	112
2413.9	98
2414.82	100
2415.75	98
2416.67	102
2417.59	106
2418.51	106
2419.44	114
2420.36	104
2421.28	104
2422.2	104
2423.12	106
2424.04	98
2424.96	104
2425.89	102
2426.81	96
2427.73	108
2428.65	104
2429.57	104
2430.49	106
2431.41	108
2432.33	106
2433.25	100
2434.17	106
2435.09	102
2436.01	112
2436.93	112
2437.85	108
2438.77	118
2439.69	118
2440.6	110
2441.52	114
2442.44	104
2443.36	114
2444.28	108
2445.2	108
2446.11	112
2447.03	126
2447.95	114
2448.87	118
2449.79	112
2450.7	118
2451.62	120
2452.54	124
2453.45	126
2454.37	128
2455.29	114
2456.2	114
2457.12	124
2458.04	122
2458.95	132
2459.87	128
2460.78	120
2461.7	134
2462.62	130
2463.53	124
2464.45	132
2465.36	134
2466.28	132
2467.19	128
2468.11	140
2469.02	120
2469.94	130
2470.85	122
2471.76	124
2472.68	136
2473.59	126
2474.51	138
2475.42	132
2476.33	130
2477.25	124
2478.16	128
2479.07	126
2479.99	126
2480.9	126
2481.81	134
2482.73	130
2483.64	130
2484.55	138
2485.46	130
2486.37	138
2487.29	130
2488.2	128
2489.11	130
2490.02	118
2490.93	130
2491.85	118
2492.76	122
2493.67	124
2494.58	122
2495.49	106
2496.4	128
2497.31	110
2498.22	120
2499.13	122
2500.04	120
2500.95	116
2501.86	116
2502.77	112
2503.68	110
2504.59	116
2505.5	114
2506.41	110
2507.32	120
2508.23	110
2509.13	110
2510.04	110
2510.95	106
2511.86	118
2512.77	104
2513.68	118
2514.58	104
2515.49	114
2516.4	102
2517.31	96
2518.21	110
2519.12	106
2520.03	106
2520.94	100
2521.84	106
2522.75	98
2523.66	106
2524.56	104
2525.47	102
2526.38	104
2527.28	92
2528.19	108
2529.09	102
2530	98
2530.9	98
2531.81	112
2532.71	110
2533.62	114
2534.53	106
2535.43	104
2536.33	104
2537.24	104
2538.14	106
2539.05	110
2539.95	120
2540.86	110
2541.76	98
2542.66	106
2543.57	100
2544.47	92
2545.38	110
2546.28	98
2547.18	108
2548.09	110
2548.99	112
2549.89	102
2550.79	116
2551.7	112
2552.6	118
2553.5	120
2554.4	114
2555.3	110
2556.21	108
2557.11	116
2558.01	112
2558.91	116
2559.81	112
2560.71	106
2561.61	94
2562.52	102
2563.42	104
2564.32	102
2565.22	96
2566.12	104
2567.02	96
2567.92	100
2568.82	102
2569.72	98
2570.62	100
2571.52	102
2572.42	104
2573.32	94
2574.22	110
2575.11	98
2576.01	104
2576.91	108
2577.81	108
2578.71	96
2579.61	112
2580.51	104
2581.4	108
2582.3	116
2583.2	110
2584.1	110
2584.99	104
2585.89	104
2586.79	110
2587.69	112
2588.58	100
2589.48	112
2590.38	118
2591.27	114
2592.17	104
2593.07	120
2593.96	104
2594.86	106
2595.76	110
2596.65	102
2597.55	96
2598.44	108
2599.34	100
2600.23	114
2601.13	114
2602.03	100
2602.92	104
2603.81	104
2604.71	102
2605.6	104
2606.5	100
2607.39	98
2608.29	106
2609.18	102
2610.08	102
2610.97	100
2611.86	108
2612.76	106
2613.65	114
2614.54	106
2615.44	98
2616.33	102
2617.22	94
2618.12	98
2619.01	100
2619.9	102
2620.79	94
2621.68	94
2622.58	94
2623.47	98
2624.36	98
2625.25	90
2626.14	104
2627.04	104
2627.93	104
2628.82	92
2629.71	106
2630.6	100
2631.49	102
2632.38	112
2633.27	104
2634.16	100
2635.05	100
2635.94	96
2636.83	100
2637.72	98
2638.61	102
2639.5	106
2640.39	118
2641.28	104
2642.17	102
2643.06	104
2643.95	110
2644.84	100
2645.73	112
2646.61	110
2647.5	106
2648.39	104
2649.28	98
2650.17	114
2651.06	104
2651.94	104
2652.83	104
2653.72	104
2654.61	94
2655.49	104
2656.38	100
2657.27	104
2658.15	106
2659.04	100
2659.93	92
2660.81	102
2661.7	102
2662.59	94
2663.47	96
2664.36	92
2665.25	100
2666.13	98
2667.02	106
2667.9	112
2668.79	104
2669.67	100
2670.56	112
2671.44	96
2672.33	104
2673.21	102
2674.1	96
2674.98	102
2675.87	106
2676.75	98
2677.63	102
2678.52	92
2679.4	104
2680.29	104
2681.17	104
2682.05	102
2682.94	94
2683.82	98
2684.7	98
2685.58	104
2686.47	90
2687.35	94
2688.23	98
2689.11	104
2690	104
2690.88	108
2691.76	86
2692.64	96
2693.52	100
2694.41	110
2695.29	104
2696.17	102
2697.05	104
2697.93	116
2698.81	104
2699.69	110
2700.57	104
2701.45	108
2702.34	106
2703.22	120
2704.1	108
2704.98	104
2705.86	110
2706.74	102
2707.62	104
2708.49	104
2709.37	116
2710.25	96
2711.13	100
2712.01	104
2712.89	104
2713.77	100
2714.65	100
2715.53	102
2716.41	112
2717.28	104
2718.16	98
2719.04	118
2719.92	118
2720.8	106
2721.67	102
2722.55	102
2723.43	108
2724.31	112
2725.18	104
2726.06	110
2726.94	104
2727.81	110
2728.69	114
2729.57	108
2730.44	102
2731.32	102
2732.2	108
2733.07	102
2733.95	106
2734.82	98
2735.7	90
2736.57	92
2737.45	98
2738.32	94
2739.2	102
2740.07	96
2740.95	88
2741.82	98
2742.7	86
2743.57	102
2744.45	104
2745.32	94
2746.2	96
2747.07	92
2747.94	102
2748.82	88
2749.69	90
2750.56	88
2751.44	96
2752.31	86
2753.18	94
2754.06	82
2754.93	88
2755.8	94
2756.68	100
2757.55	86
2758.42	90
2759.29	98
2760.16	100
2761.04	88
2761.91	100
2762.78	96
2763.65	98
2764.52	98
2765.39	104
2766.26	100
2767.14	98
2768.01	100
2768.88	96
2769.75	98
2770.62	86
2771.49	96
2772.36	96
2773.23	96
2774.1	100
2774.97	96
2775.84	104
2776.71	94
2777.58	100
2778.45	104
2779.32	106
2780.19	96
2781.06	92
2781.92	96
2782.79	102
2783.66	102
2784.53	100
2785.4	102
2786.27	100
2787.13	98
2788	98
2788.87	104
2789.74	86
2790.61	98
2791.47	102
2792.34	100
2793.21	110
2794.08	106
2794.94	98
2795.81	98
2796.68	90
2797.54	94
2798.41	106
2799.28	94
2800.14	92
2801.01	86
2801.87	92
2802.74	90
2803.61	100
2804.47	94
2805.34	96
2806.2	98
2807.07	94
2807.93	90
2808.8	88
2809.66	100
2810.53	92
2811.39	98
2812.26	82
2813.12	94
2813.99	88
2814.85	90
2815.71	86
2816.58	98
2817.44	86
2818.3	96
2819.17	84
2820.03	98
2820.9	94
2821.76	92
2822.62	92
2823.48	84
2824.35	94
2825.21	86
2826.07	86
2826.93	98
2827.8	104
2828.66	90
2829.52	100
2830.38	88
2831.24	104
2832.11	106
2832.97	96
2833.83	104
2834.69	114
2835.55	112
2836.41	100
2837.27	108
2838.13	124
2838.99	118
2839.85	124
2840.72	130
2841.58	126
2842.44	124
2843.3	118
2844.16	124
2845.02	114
2845.87	124
2846.73	116
2847.59	122
2848.45	120
2849.31	120
2850.17	100
2851.03	122
2851.89	106
2852.75	122
2853.61	120
2854.46	120
2855.32	114
2856.18	116
2857.04	108
2857.9	114
2858.75	112
2859.61	122
2860.47	122
2861.33	102
2862.18	118
2863.04	114
2863.9	112
2864.76	114
2865.61	114
2866.47	120
2867.33	110
2868.18	120
2869.04	118
2869.89	124
2870.75	118
2871.61	124
2872.46	112
2873.32	120
2874.17	130
2875.03	134
2875.88	120
2876.74	128
2877.59	134
2878.45	132
2879.3	146
2880.16	152
2881.01	136
2881.87	144
2882.72	154
2883.58	140
2884.43	158
2885.28	154
2886.14	146
2886.99	152
2887.85	148
2888.7	160
2889.55	144
2890.41	160
2891.26	158
2892.11	160
2892.96	164
2893.82	160
2894.67	152
2895.52	164
2896.38	150
2897.23	176
2898.08	166
2898.93	164
2899.78	168
2900.63	164
2901.49	168
2902.34	178
2903.19	178
2904.04	192
2904.89	210
2905.74	196
2906.59	188
2907.44	194
2908.29	206
2909.15	226
2910	222
2910.85	234
2911.7	242
2912.55	232
2913.4	244
2914.25	250
2915.1	252
2915.95	254
2916.8	292
2917.64	302
2918.49	322
2919.34	332
2920.19	360
2921.04	392
2921.89	406
2922.74	466
2923.59	458
2924.43	494
2925.28	506
2926.13	574
2926.98	588
2927.83	618
2928.67	696
2929.52	684
2930.37	724
2931.22	708
2932.06	730
2932.91	682
2933.76	652
2934.6	658
2935.45	592
2936.3	578
2937.14	524
2937.99	514
2938.84	442
2939.68	420
2940.53	410
2941.37	384
2942.22	342
2943.07	324
2943.91	306
2944.76	292
2945.6	274
2946.45	252
2947.29	242
2948.14	236
2948.98	218
2949.83	206
2950.67	214
2951.52	186
2952.36	182
2953.2	188
2954.05	182
2954.89	170
2955.74	172
2956.58	158
2957.42	170
2958.27	166
2959.11	168
2959.95	166
2960.8	170
2961.64	150
2962.48	170
2963.32	162
2964.17	166
2965.01	154
2965.85	170
2966.69	162
2967.54	152
2968.38	166
2969.22	152
2970.06	160
2970.9	168
2971.75	148
2972.59	176
2973.43	172
2974.27	166
2975.11	164
2975.95	168
2976.79	176
2977.63	164
2978.47	178
2979.31	168
2980.15	168
2980.99	176
2981.84	182
2982.67	190
2983.51	174
2984.35	170
2985.19	188
2986.03	180
2986.87	182
2987.71	178
2988.55	164
2989.39	170
2990.23	180
2991.07	180
2991.91	180
2992.75	170
2993.58	176
2994.42	172
2995.26	158
2996.1	166
2996.94	192
2997.77	184
2998.61	176
2999.45	178
3000.29	186
3001.12	180
3001.96	178
3002.8	188
3003.63	192
3004.47	196
3005.31	180
3006.14	206
3006.98	190
3007.82	196
3008.65	198
3009.49	214
3010.33	208
3011.16	200
3012	200
3012.83	194
3013.67	186
3014.5	176
3015.34	168
3016.18	174
3017.01	180
3017.84	182
3018.68	168
3019.51	178
3020.35	172
3021.18	174
3022.02	156
3022.85	172
3023.69	164
3024.52	180
3025.35	172
3026.19	164
3027.02	180
3027.85	160
3028.69	170
3029.52	172
3030.35	184
3031.19	188
3032.02	186
3032.85	184
3033.69	192
3034.52	192
3035.35	194
3036.18	186
3037.01	206
3037.85	206
3038.68	216
3039.51	236
3040.34	236
3041.17	262
3042.01	258
3042.84	286
3043.67	301.968
3044.5	315.967
3045.33	329.905
3046.16	332.159
3046.99	359.581
3047.82	359.702
3048.65	405.594
3049.48	373.591
3050.31	385.961
3051.14	418.629
3051.97	391.818
3052.8	405.877
3053.63	409.081
3054.46	404.504
3055.29	424.835
3056.12	424.21
3056.95	415.256
3057.78	435.625
3058.61	448.616
3059.44	440.628
3060.27	468.576
3061.1	478.49
3061.92	497.944
3062.75	522.577
3063.58	502.276
3064.41	511.863
3065.24	532.484
3066.07	517.025
3066.89	510.766
3067.72	482.709
3068.55	484.568
3069.38	465.47
3070.2	431.671
3071.03	432.539
3071.86	419.254
3072.69	411.748
3073.51	412.304
3074.34	403.379
3075.17	394.63
3075.99	417.557
3076.82	391.105
3077.65	393.157
3078.47	353.083
3079.3	345.072
3080.12	332.373
3080.95	311.867
3081.78	288.144
3082.6	265.938
3083.43	256.309
3084.25	239.293
3085.08	224.134
3085.9	220.929
3086.73	205.787
3087.55	202.487
3088.38	200.26
3089.2	194.868
3090.03	186.967
3090.85	195.644
3091.68	188.853
3092.5	199.424
3093.32	205.78
3094.15	191.202
3094.97	205.567
3095.8	217.343
3096.62	234.718
3097.44	241.664
3098.27	245.112
3099.09	270.799
3099.91	280.05
3100.74	311.156
3101.56	311.5
3102.38	332.064
3103.21	343.365
3104.03	312.78
3104.85	291.878
3105.67	266.806
3106.5	244.217
3107.32	222.338
3108.14	202.133
3108.96	192.647
3109.78	180.603
3110.61	173.986
3111.43	158.431
3112.25	163.112
3113.07	155.498
3113.89	153.575
3114.71	150.893
3115.53	150.265
3116.35	150.365
3117.17	151.225
3117.99	145.928
3118.82	136.435
3119.64	147.503
3120.46	148
3121.28	144.331
3122.1	147.682
3122.92	160
3123.74	156.299
3124.56	148.38
3125.38	154.997
3126.2	160.836
3127.01	157.64
3127.24	156
3128.06	150
3128.88	152
3129.71	150
3130.53	144
3131.35	152
3132.18	150
3133	152
3133.82	158
3134.65	154
3135.47	162
3136.29	152
3137.12	146
3137.94	150
3138.76	150
3139.58	164
3140.4	156
3141.23	158
3142.05	160
3142.87	154
3143.69	160
3144.51	160
3145.33	162
3146.15	154
3146.98	162
3147.8	166
3148.62	162
3149.44	158
3150.26	160
3151.08	166
3151.9	166
3152.72	174
3153.54	162
3154.36	164
3155.18	166
3156	178
3156.82	156
3157.64	168
3158.46	172
3159.28	162
3160.1	164
3160.92	170
3161.74	174
3162.55	162
3163.37	172
3164.19	152
3165.01	176
3165.83	152
3166.65	160
3167.47	164
3168.28	174
3169.1	164
3169.92	164
3170.74	170
3171.56	146
3172.37	152
3173.19	148
3174.01	156
3174.82	144
3175.64	140
3176.46	148
3177.28	154
3178.09	144
3178.91	154
3179.73	150
3180.54	148
3181.36	142
3182.17	156
3182.99	138
3183.81	152
3184.62	150
3185.44	136
3186.25	128
3187.07	146
3187.89	132
3188.7	148
3189.52	142
3190.33	130
3191.15	136
3191.96	138
3192.77	120
3193.59	136
3194.4	132
3195.22	122
3196.03	136
3196.85	138
3197.66	140
3198.47	132
3199.29	136
3200.1	136
3200.92	142
3201.73	106
3202.54	130
3203.36	128
3204.17	132
3204.98	126
3205.79	136
3206.61	122
3207.42	120
3208.23	122
3209.05	126
3209.86	122
3210.67	134
3211.48	124
3212.29	128
3213.11	126
3213.92	112
3214.73	114
3215.54	124
3216.35	134
3217.16	122
3217.97	124
3218.79	128
3219.6	134
3220.41	130
3221.22	128
3222.03	120
3222.84	118
3223.65	118
3224.46	114
3225.27	124
3226.08	122
3226.89	120
3227.7	126
3228.51	122
3229.32	112
3230.13	116
3230.94	124
3231.75	122
3232.56	106
3233.36	96
3234.17	112
3234.98	116
3235.79	104
3236.6	102
3237.41	100
3238.22	102
3239.02	104
3239.83	98
3240.64	100
3241.45	98
3242.26	100
3243.06	92
3243.87	96
3244.68	92
3245.49	94
3246.29	102
3247.1	96
3247.91	104
3248.71	94
3249.52	96
3250.33	90
3251.13	94
3251.94	94
3252.75	90
3253.55	98
3254.36	104
3255.17	94
3255.97	80
3256.78	86
3257.58	100
3258.39	94
3259.19	100
3260	92
3260.8	84
3261.61	94
3262.41	96
3263.22	100
3264.02	96
3264.83	86
3265.63	92
3266.44	88
3267.24	88
3268.05	86
3268.85	94
3269.65	88
3270.46	80
3271.26	86
3272.06	86
3272.87	82
3273.67	82
3274.48	76
3275.28	86
3276.08	76
3276.88	82
3277.69	82
3278.49	80
3279.29	74
3280.1	88
3280.9	74
3281.7	70
3282.5	72
3283.3	88
3284.11	68
3284.91	86
3285.71	84
3286.51	82
3287.31	76
3288.11	78
3288.92	66
3289.72	80
3290.52	76
3291.32	78
3292.12	80
3292.92	72
3293.72	80
3294.52	74
3295.32	76
3296.12	66
3296.92	68
3297.72	76
3298.52	80
3299.32	76
3300.12	84
3300.92	76
3301.72	68
3302.52	90
3303.32	74
3304.12	64
3304.92	72
3305.72	82
3306.52	80
3307.31	82
3308.11	72
3308.91	74
3309.71	82
3310.51	88
3311.31	88
3312.1	84
3312.9	82
3313.7	86
3314.5	90
3315.29	86
3316.09	104
3316.89	92
3317.69	94
3318.48	92
3319.28	102
3320.08	104
3320.88	110
3321.67	118
3322.47	116
3323.27	106
3324.06	120
3324.86	128
3325.65	108
3326.45	124
3327.25	120
3328.04	118
3328.84	118
3329.63	120
3330.43	116
3331.22	100
3332.02	102
3332.81	102
3333.61	86
3334.4	92
3335.2	88
3335.99	82
3336.79	86
3337.58	82
3338.38	84
3339.17	76
3339.97	74
3340.76	78
3341.55	70
3342.35	78
3343.14	68
3343.94	68
3344.73	66
3345.52	64
3346.32	62
3347.11	58
3347.9	64
3348.7	68
3349.49	58
3350.28	66
3351.07	64
3351.87	58
3352.66	60
3353.45	58
3354.24	54
3355.03	64
3355.83	56
3356.62	54
3357.41	60
3358.2	66
3358.99	58
3359.79	54
3360.58	60
3361.37	58
3362.16	58
3362.95	62
3363.74	56
3364.53	52
3365.32	52
3366.11	56
3366.9	58
3367.69	56
3368.48	58
3369.27	52
3370.06	52
3370.85	54
3371.64	52
3372.43	54
3373.22	54
3374.01	62
3374.8	54
3375.59	56
3376.38	42
3377.17	56
3377.96	54
3378.75	50
3379.54	48
3380.32	54
3381.11	50
3381.9	56
3382.69	58
3383.48	58
3384.27	54
3385.05	50
3385.84	54
3386.63	52
3387.42	50
3388.2	44
3388.99	46
3389.78	56
3390.57	48
3391.35	50
3392.14	48
3392.93	44
3393.71	42
3394.5	58
3395.29	46
3396.07	52
3396.86	48
3397.65	52
3398.43	48
3399.22	54
3400	46
3400.79	50
3401.58	52
3402.36	46
3403.15	42
3403.93	40
3404.72	40
3405.5	50
3406.29	50
3407.07	46
3407.86	50
3408.64	44
3409.43	46
3410.21	46
3411	48
3411.78	48
3412.56	38
3413.35	52
3414.13	48
3414.92	44
3415.7	48
3416.48	52
3417.27	48
3418.05	34
3418.83	50
3419.62	42
3420.4	44
3421.18	46
3421.96	42
3422.75	42
3423.53	40
3424.31	44
3425.1	44
3425.88	48
3426.66	42
3427.44	48
3428.22	50
3429.01	48
3429.79	44
3430.57	48
3431.35	38
3432.13	48
3432.91	44
3433.69	44
3434.48	48
3435.26	36
3436.04	48
3436.82	42
3437.6	52
3438.38	48
3439.16	50
3439.94	44
3440.72	42
3441.5	48
3442.28	48
3443.06	48
3443.84	40
3444.62	44
3445.4	40
3446.18	48
3446.96	48
3447.74	46
3448.52	46
3449.3	44
3450.08	48
3450.85	44
3451.63	50
3452.41	40
3453.19	48
3453.97	40
3454.75	32
3455.52	42
3456.3	44
3457.08	38
3457.86	44
3458.64	44
3459.41	40
3460.19	40
3460.97	38
3461.75	44
3462.52	44
3463.3	48
3464.08	46
3464.86	46
3465.63	40
3466.41	50
3467.18	42
3467.96	46
3468.74	36
3469.51	38
3470.29	42
3471.07	38
3471.84	40
3472.62	36
3473.39	46
3474.17	44
3474.95	44
3475.72	32
3476.5	48
3477.27	44
3478.05	42
3478.82	32
3479.6	44
3480.37	50
3481.15	36
3481.92	42
3482.7	44
3483.47	40
3484.24	42
3485.02	42
3485.79	46
3486.57	34
3487.34	42
3488.11	42
3488.89	40
3489.66	36
3490.43	40
3491.21	42
3491.98	42
3492.75	44
3493.53	40
3494.3	42
3495.07	42
3495.85	38
3496.62	46
3497.39	38
3498.16	40
3498.93	42
3499.71	40
