#Acq. time (s)=	20
#Accumulations=	2
#Range (cm-¹)=	50...4000
#Windows=	3
#Autofocus=	Off
#AutoExposure=	Off
#Spike filter=	Multiple accum.
#Delay time (s)=	0
#Binning=	1
#Readout mode=	Signal
#DeNoise=	Off
#ICS correction=	Off
#Dark correction=	Off
#Inst. Process=	Off
#Instrument=	LabRAM HR Evol
#Detector=	Syncerity OE
#Objective=	x100_VIS
#Grating=	600 (500nm)
#ND Filter=	100%
#Laser=	532nm_Edge
#Hole=	100.021
#Range=	Visible
#Project=	Omar
#Sample=	
#Site=	21-09-22
#Title=	 CN-Sastre
#Remark=	
#Date=	21.09.2022 13:11
#Acquired=	21.09.2022 13:11:01
51.0918	42
52.9354	50
54.7807	44
56.6235	50
58.4681	82
60.3102	110
62.154	176
63.9954	228
65.8385	290
67.6792	368
69.5216	470
71.3615	600
73.2032	808
75.0424	992
76.8834	1116
78.7218	1206
80.5621	1406
82.3998	1570
84.2393	1650
86.0764	1744
87.9152	1836
89.7515	1962
91.5874	1982
93.4251	1908
95.2603	1872
97.0973	1858
98.9318	1906
100.766	1896
102.602	1852
104.435	1918
106.27	2004
108.103	2042
109.936	1934
111.77	1908
113.601	2014
115.433	1948
117.266	1960
119.096	1902
120.926	1926
122.758	1960
124.588	1882
126.417	1888
128.246	1900
130.076	1836
131.904	1842
133.732	1826
135.561	1874
137.388	1886
139.215	1870
141.041	1830
142.869	1874
144.695	1884
146.52	1870
148.345	1840
150.171	1836
151.995	1848
153.819	1858
155.642	1858
157.465	1848
159.29	1834
161.112	1764
162.934	1852
164.756	1834
166.577	1796
168.398	1814
170.219	1754
172.041	1768
173.861	1760
175.68	1768
177.499	1794
179.318	1800
181.137	1772
182.955	1716
184.772	1724
186.592	1740
188.409	1706
190.225	1710
192.042	1736
193.857	1724
195.673	1706
197.488	1688
199.303	1666
201.118	1722
202.932	1746
204.746	1682
206.559	1732
208.372	1660
210.185	1688
211.997	1692
213.809	1680
215.621	1654
217.432	1626
219.243	1634
221.054	1654
222.864	1644
224.674	1626
226.483	1620
228.293	1622
230.101	1636
231.91	1572
233.718	1604
235.524	1548
237.331	1610
239.138	1594
240.945	1628
242.751	1570
244.557	1602
246.363	1618
248.168	1594
249.971	1634
251.776	1644
253.58	1610
255.384	1662
257.188	1644
258.991	1634
260.792	1600
262.594	1610
264.396	1582
266.198	1632
268	1650
269.799	1600
271.599	1600
273.4	1614
275.2	1532
277	1614
278.797	1614
280.596	1596
282.395	1608
284.193	1638
285.989	1592
287.786	1626
289.584	1600
291.378	1656
293.175	1570
294.971	1606
296.765	1620
298.561	1660
300.356	1622
302.148	1612
303.943	1604
305.737	1618
307.529	1664
309.322	1652
311.115	1664
312.906	1664
314.698	1706
316.49	1648
318.28	1682
320.071	1672
321.86	1644
323.651	1662
325.441	1680
327.229	1682
329.019	1692
330.806	1638
332.595	1692
334.381	1698
336.17	1694
337.955	1694
339.743	1680
341.528	1660
343.315	1646
345.099	1662
346.885	1678
348.669	1686
350.455	1680
352.238	1714
354.022	1680
355.805	1684
357.589	1672
359.371	1700
361.154	1666
362.935	1684
364.718	1704
366.498	1686
368.278	1722
370.06	1722
371.839	1722
373.62	1698
375.398	1714
377.177	1720
378.956	1750
380.734	1704
382.513	1752
384.29	1736
386.067	1742
387.845	1736
389.621	1752
391.396	1768
393.173	1756
394.948	1754
396.723	1762
398.499	1776
400.273	1738
402.046	1722
403.819	1756
405.594	1722
407.366	1748
409.138	1752
410.91	1726
412.683	1752
414.454	1706
416.225	1734
417.995	1756
419.768	1738
421.537	1732
423.307	1750
425.076	1752
426.844	1730
428.615	1730
430.382	1726
432.15	1752
433.917	1790
435.684	1740
437.451	1768
439.219	1782
440.985	1806
442.751	1730
444.516	1764
446.281	1804
448.045	1804
449.81	1724
451.574	1786
453.337	1826
455.102	1836
456.865	1836
458.628	1828
460.39	1780
462.152	1776
463.913	1802
465.674	1832
467.435	1776
469.196	1780
470.956	1756
472.716	1728
474.475	1734
476.234	1748
477.993	1700
479.752	1774
481.51	1708
483.268	1738
485.025	1766
486.782	1718
488.539	1740
490.295	1726
492.051	1736
493.807	1688
495.563	1708
497.316	1740
499.07	1700
500.825	1686
502.579	1676
504.333	1722
506.086	1712
507.839	1694
509.592	1686
511.344	1720
513.094	1694
514.846	1674
516.597	1666
518.349	1706
520.099	1750
521.85	1776
523.598	1754
525.347	1758
527.097	1824
528.846	1824
530.595	1858
532.341	1890
534.089	1932
535.837	1986
537.584	2030
539.329	2068
541.076	2144
542.822	2122
544.568	2194
546.312	2178
548.057	2240
549.802	2286
551.545	2308
553.289	2312
555.033	2342
556.775	2406
558.518	2330
560.261	2350
562.002	2372
563.744	2346
565.487	2354
567.226	2302
568.968	2304
570.709	2214
572.447	2216
574.188	2268
575.926	2238
577.665	2156
579.405	2172
581.142	2106
582.88	2116
584.617	2094
586.355	2040
588.091	2074
589.828	1994
591.565	2008
593.3	1984
595.036	1914
596.77	1896
598.506	1952
600.239	1866
601.974	1836
603.707	1792
605.442	1814
607.174	1746
608.905	1714
610.639	1740
612.37	1742
614.103	1648
615.833	1648
617.565	1708
619.295	1636
621.026	1614
622.755	1638
624.484	1608
626.215	1584
627.943	1522
629.67	1586
631.4	1516
633.127	1576
634.856	1516
636.582	1532
638.308	1488
640.036	1448
641.762	1506
643.487	1458
645.214	1460
646.938	1466
648.662	1478
650.386	1422
652.112	1416
653.835	1396
655.558	1360
657.282	1368
659.005	1318
660.726	1352
662.448	1320
664.171	1330
665.892	1294
667.613	1312
669.333	1266
671.053	1292
672.774	1256
674.494	1280
676.213	1210
677.931	1162
679.649	1200
681.369	1180
683.087	1158
684.804	1150
686.521	1142
688.238	1112
689.954	1114
691.67	1110
693.386	1096
695.103	1062
696.818	1042
698.533	1032
700.247	1058
701.961	1028
703.675	1012
705.389	1036
707.102	990
708.814	994
710.527	990
712.239	978
713.951	984
715.662	976
717.373	960
719.084	936
720.795	934
722.505	946
724.215	932
725.924	940
727.633	938
729.342	898
731.051	936
732.759	896
734.467	912
736.174	910
737.882	906
739.589	910
741.295	880
742.999	930
744.705	912
746.411	890
748.116	914
749.821	916
751.526	912
753.23	902
754.934	924
756.636	948
758.34	922
760.043	974
761.745	932
763.448	954
765.148	950
766.85	966
768.551	936
770.252	954
771.953	952
773.652	986
775.352	952
777.052	960
778.751	970
780.448	986
782.147	978
783.846	992
785.544	980
787.24	968
788.938	976
790.635	966
792.33	966
794.027	956
795.723	940
797.417	944
799.113	946
800.808	936
802.501	928
804.196	918
805.89	936
807.582	912
809.276	938
810.968	900
812.661	916
814.354	892
816.044	872
817.736	840
819.426	820
821.118	836
822.807	804
824.498	808
826.186	842
827.877	816
829.565	820
831.254	788
832.942	788
834.631	734
836.317	760
838.006	738
839.692	756
841.38	734
843.065	726
844.752	756
846.437	714
848.123	736
849.808	706
851.493	746
853.177	740
854.86	714
856.545	746
858.228	712
859.912	746
861.594	740
863.276	736
864.959	742
866.64	728
868.321	732
870.003	692
871.683	714
873.363	730
875.044	734
876.723	720
878.402	736
880.083	732
881.761	750
883.439	738
885.116	774
886.795	746
888.472	750
890.149	746
891.825	728
893.503	760
895.179	736
896.854	758
898.529	766
900.204	782
901.88	766
903.555	792
905.228	816
906.902	826
908.575	818
910.25	812
911.922	836
913.595	800
915.266	832
916.938	848
918.609	876
920.28	854
921.951	886
923.623	876
925.293	896
926.963	918
928.633	938
930.302	960
931.97	954
933.639	922
935.307	950
936.975	992
938.642	998
940.31	972
941.977	1012
943.643	1030
945.31	1036
946.976	1036
948.641	1002
950.307	1038
951.972	1060
953.636	1030
955.301	1006
956.965	1070
958.629	1072
960.292	1042
961.955	1040
963.618	1048
965.279	1018
966.941	1010
968.603	1034
970.265	1034
971.926	1072
973.587	1060
975.248	1034
976.908	1054
978.566	1042
980.226	1086
981.886	1064
983.545	1084
985.204	1078
986.86	1096
988.519	1084
990.177	1116
991.834	1114
993.491	1126
995.147	1116
996.803	1158
998.46	1150
1000.12	1156
1001.77	1146
1003.43	1160
1005.08	1168
1006.73	1164
1008.39	1164
1010.04	1192
1011.7	1218
1013.35	1230
1015	1224
1016.65	1250
1018.3	1242
1019.96	1244
1021.61	1286
1023.26	1294
1024.91	1314
1026.56	1320
1028.21	1372
1029.86	1336
1031.51	1354
1033.16	1404
1034.81	1414
1036.46	1462
1038.1	1454
1039.75	1478
1041.4	1456
1043.05	1470
1044.69	1512
1046.34	1568
1047.99	1576
1049.63	1594
1051.28	1624
1052.92	1624
1054.57	1638
1056.21	1628
1057.86	1688
1059.5	1754
1061.14	1738
1062.79	1734
1064.43	1798
1066.07	1786
1067.72	1822
1069.36	1844
1071	1898
1072.64	1938
1074.28	1952
1075.92	1930
1077.57	1936
1079.2	2048
1080.84	2020
1082.48	2084
1084.12	2036
1085.76	2032
1087.4	2128
1089.04	2162
1090.68	2132
1092.32	2136
1093.95	2108
1095.59	2114
1097.22	2170
1098.86	2124
1100.5	2130
1102.13	2120
1103.77	2086
1105.4	2074
1107.04	2038
1108.67	1946
1110.31	1980
1111.94	1970
1113.58	1878
1115.21	1896
1116.84	1804
1118.47	1818
1120.1	1766
1121.74	1772
1123.37	1706
1125	1650
1126.63	1636
1128.26	1606
1129.89	1582
1131.52	1576
1133.15	1500
1134.78	1486
1136.41	1448
1138.04	1424
1139.67	1438
1141.3	1358
1142.92	1368
1144.55	1302
1146.18	1308
1147.8	1320
1149.43	1254
1151.06	1286
1152.68	1198
1154.31	1240
1155.93	1190
1157.56	1142
1159.18	1176
1160.81	1118
1162.43	1126
1164.06	1078
1165.68	1106
1167.3	1100
1168.93	1082
1170.55	1056
1172.17	1030
1173.79	1024
1175.41	1002
1177.03	986
1178.66	994
1180.28	960
1181.9	938
1183.52	920
1185.14	946
1186.75	906
1188.37	906
1189.99	924
1191.61	908
1193.23	898
1194.85	884
1196.46	830
1198.08	840
1199.7	864
1201.31	838
1202.93	840
1204.55	810
1206.16	802
1207.78	824
1209.39	800
1211.01	764
1212.62	758
1214.24	782
1215.85	752
1217.46	748
1219.08	716
1220.69	722
1222.3	742
1223.91	726
1225.53	718
1227.14	720
1228.75	678
1230.36	708
1231.97	698
1233.58	704
1235.19	694
1236.8	684
1238.41	706
1240.02	680
1241.63	686
1243.23	700
1244.84	672
1246.45	688
1248.06	710
1249.67	692
1251.27	696
1252.88	686
1254.48	684
1256.09	676
1257.7	692
1259.3	646
1260.91	668
1262.51	674
1264.12	676
1265.72	694
1267.32	694
1268.93	700
1270.53	712
1272.13	694
1273.73	698
1275.34	686
1276.94	694
1278.54	694
1280.14	690
1281.74	714
1283.35	708
1284.94	720
1286.54	692
1288.15	697
1289.74	686
1291.34	696
1292.94	716
1294.54	694
1296.14	744
1297.74	722
1299.33	704
1300.93	750
1302.53	722
1304.12	738
1305.72	736
1307.32	712
1308.91	702
1310.51	724
1312.1	720
1313.7	718
1315.29	752
1316.89	756
1318.48	742
1320.07	754
1321.67	766
1323.26	760
1324.85	762
1326.45	742
1328.04	812
1329.63	778
1331.22	766
1332.81	772
1334.4	794
1335.99	814
1337.58	798
1339.17	794
1340.77	788
1342.35	832
1343.94	806
1345.53	814
1347.12	788
1348.71	798
1350.3	798
1351.88	812
1353.47	802
1355.06	786
1356.64	800
1358.23	810
1359.82	802
1361.4	786
1362.99	782
1364.57	804
1366.16	756
1367.74	758
1369.33	748
1370.91	778
1372.49	786
1374.08	762
1375.66	768
1377.24	752
1378.82	762
1380.41	746
1381.99	730
1383.57	728
1385.15	738
1386.73	754
1388.31	722
1389.89	726
1391.47	706
1393.05	690
1394.63	718
1396.21	720
1397.79	718
1399.37	740
1400.95	708
1402.52	714
1404.1	734
1405.68	714
1407.25	694
1408.83	732
1410.41	708
1411.98	722
1413.56	716
1415.13	676
1416.71	726
1418.29	712
1419.86	714
1421.43	690
1423.01	704
1424.58	698
1426.15	716
1427.73	720
1429.3	692
1430.87	680
1432.44	704
1434.02	698
1435.59	734
1437.16	710
1438.73	722
1440.3	714
1441.87	724
1443.44	696
1445.01	694
1446.58	706
1448.15	710
1449.72	706
1451.29	714
1452.85	680
1454.42	692
1455.99	682
1457.56	706
1459.12	728
1460.69	690
1462.26	706
1463.82	698
1465.39	674
1466.95	692
1468.52	684
1470.08	710
1471.65	706
1473.21	716
1474.78	672
1476.34	710
1477.9	700
1479.47	688
1481.03	672
1482.59	702
1484.16	728
1485.72	718
1487.28	742
1488.84	680
1490.4	730
1491.96	708
1493.52	702
1495.08	708
1496.64	720
1498.2	718
1499.76	702
1501.32	692
1502.88	750
1504.44	728
1506	738
1507.55	706
1509.11	720
1510.67	712
1512.22	706
1513.78	746
1515.34	740
1516.89	732
1518.45	732
1520.01	756
1521.56	756
1523.11	736
1524.67	708
1526.22	708
1527.78	716
1529.33	716
1530.88	734
1532.44	728
1533.99	734
1535.54	736
1537.09	704
1538.65	740
1540.2	720
1541.75	740
1543.3	704
1544.85	742
1546.4	732
1547.95	742
1549.5	742
1551.05	724
1552.6	732
1554.15	748
1555.7	764
1557.25	758
1558.79	768
1560.34	736
1561.89	762
1563.43	772
1564.98	774
1566.53	760
1568.08	768
1569.62	754
1571.17	774
1572.71	752
1574.26	778
1575.8	760
1577.35	804
1578.89	812
1580.43	774
1581.98	806
1583.52	786
1585.06	800
1586.61	794
1588.15	786
1589.69	786
1591.23	790
1592.77	764
1594.32	786
1595.86	772
1597.4	794
1598.94	800
1600.48	792
1602.02	780
1603.56	762
1605.1	792
1606.64	783.592
1608.18	790.746
1609.71	737.543
1611.25	760.05
1612.79	755.471
1614.33	744.318
1615.86	772.862
1617.4	758.45
1618.94	757.351
1620.47	734.707
1622.01	751.634
1623.55	744.458
1625.08	756.92
1626.62	751.046
1628.15	742.436
1629.69	726.938
1631.22	737.165
1632.75	729.281
1634.29	718.157
1635.82	729.365
1637.35	722.957
1638.89	737.151
1640.42	712.404
1641.95	698.704
1643.48	715.036
1645.02	694.414
1646.55	703.33
1648.08	679.604
1649.61	684.797
1651.14	706.452
1652.67	709.554
1654.2	691.62
1655.73	673.225
1657.26	689.059
1658.79	678.267
1660.32	674.901
1661.84	682.756
1663.37	679.776
1664.9	693.113
1666.43	692.975
1667.96	690.637
1669.48	680.145
1671.01	688.127
1672.54	687.207
1674.06	685.257
1675.59	690.977
1677.11	662.951
1678.64	680.915
1680.16	686.73
1681.69	668.344
1683.21	689.313
1684.74	667.928
1686.26	678.41
1687.79	695.045
1689.31	682.125
1690.83	676.878
1692.35	676.728
1693.88	681.619
1695.4	674.553
1696.92	682.695
1698.44	698.126
1699.96	686.182
1701.48	668.502
1703.01	679.114
1704.53	687.211
1706.05	668.329
1707.57	695.012
1709.09	671.568
1710.6	653.196
1712.12	673.495
1713.64	659.8
1715.16	666.348
1716.68	681.8
1718.2	671.958
1719.71	651.516
1721.23	661.492
1722.75	666.413
1724.27	666.055
1725.78	668.018
1727.3	662.764
1728.81	673.933
1730.33	648.786
1731.84	678.965
1733.36	664.116
1734.88	657.858
1736.39	666.519
1737.9	647.227
1739.42	663.096
1740.93	624.262
1742.44	635.912
1743.96	649.568
1745.47	662.63
1746.98	686.291
1748.49	654.679
1750.01	653.41
1751.52	642.434
1753.03	653.845
1754.54	652.95
1756.05	670.327
1757.56	653.183
1757.63	652
1759.14	668
1760.66	656
1762.18	650
1763.69	656
1765.21	664
1766.72	638
1768.24	638
1769.75	638
1771.27	622
1772.78	660
1774.3	642
1775.81	656
1777.32	636
1778.84	666
1780.35	642
1781.86	626
1783.38	642
1784.89	650
1786.4	662
1787.91	646
1789.42	660
1790.93	686
1792.44	670
1793.95	656
1795.47	652
1796.98	656
1798.48	668
1799.99	668
1801.5	666
1803.01	656
1804.52	670
1806.03	660
1807.54	660
1809.04	650
1810.55	654
1812.06	672
1813.57	650
1815.07	662
1816.58	658
1818.08	658
1819.59	648
1821.09	662
1822.6	652
1824.11	666
1825.61	660
1827.11	666
1828.62	664
1830.12	654
1831.63	642
1833.13	634
1834.63	640
1836.13	648
1837.64	644
1839.14	670
1840.64	690
1842.14	678
1843.64	666
1845.14	654
1846.64	650
1848.14	660
1849.64	662
1851.14	642
1852.64	642
1854.14	618
1855.64	670
1857.14	662
1858.64	654
1860.14	668
1861.64	660
1863.13	666
1864.63	662
1866.13	638
1867.63	660
1869.12	666
1870.62	672
1872.11	654
1873.61	652
1875.1	636
1876.6	662
1878.09	664
1879.59	640
1881.08	644
1882.58	624
1884.07	658
1885.56	666
1887.06	674
1888.55	658
1890.04	640
1891.54	688
1893.03	638
1894.52	646
1896.01	644
1897.5	668
1898.99	652
1900.48	638
1901.97	664
1903.46	642
1904.96	668
1906.44	682
1907.93	668
1909.42	646
1910.91	654
1912.4	654
1913.89	644
1915.38	662
1916.86	652
1918.35	634
1919.84	658
1921.32	670
1922.81	684
1924.3	660
1925.78	676
1927.27	654
1928.76	660
1930.24	652
1931.72	660
1933.21	644
1934.69	632
1936.18	656
1937.66	686
1939.15	670
1940.63	668
1942.11	666
1943.59	660
1945.08	672
1946.56	668
1948.04	682
1949.52	668
1951	682
1952.48	650
1953.97	666
1955.45	666
1956.93	642
1958.41	692
1959.89	672
1961.37	626
1962.85	658
1964.32	678
1965.8	652
1967.28	652
1968.76	648
1970.24	654
1971.71	662
1973.19	666
1974.67	656
1976.15	636
1977.62	672
1979.1	668
1980.57	664
1982.05	614
1983.53	658
1985	672
1986.48	658
1987.95	642
1989.42	648
1990.9	656
1992.37	668
1993.85	644
1995.32	660
1996.79	676
1998.26	656
1999.74	658
2001.21	682
2002.68	662
2004.15	650
2005.62	668
2007.09	640
2008.56	644
2010.03	640
2011.51	650
2012.98	664
2014.44	664
2015.92	632
2017.38	634
2018.85	666
2020.32	650
2021.79	666
2023.26	640
2024.73	664
2026.19	670
2027.66	662
2029.13	706
2030.59	666
2032.06	674
2033.53	678
2034.99	658
2036.46	672
2037.92	682
2039.39	648
2040.85	680
2042.32	668
2043.78	694
2045.25	664
2046.71	670
2048.17	698
2049.64	662
2051.1	688
2052.56	664
2054.02	682
2055.49	666
2056.95	670
2058.41	668
2059.87	676
2061.33	678
2062.79	654
2064.25	650
2065.71	676
2067.17	668
2068.63	650
2070.09	662
2071.55	682
2073.01	678
2074.47	658
2075.93	668
2077.39	660
2078.84	672
2080.3	636
2081.76	668
2083.22	652
2084.67	654
2086.13	666
2087.59	654
2089.04	652
2090.5	662
2091.95	658
2093.41	656
2094.86	644
2096.32	634
2097.77	654
2099.23	676
2100.68	678
2102.13	658
2103.59	654
2105.04	662
2106.49	660
2107.95	658
2109.4	688
2110.85	670
2112.3	668
2113.75	670
2115.21	678
2116.66	676
2118.11	664
2119.56	668
2121.01	660
2122.46	650
2123.91	638
2125.36	642
2126.8	652
2128.25	666
2129.7	612
2131.15	630
2132.6	660
2134.05	674
2135.49	666
2136.94	662
2138.39	648
2139.83	674
2141.28	668
2142.73	648
2144.17	668
2145.62	634
2147.06	684
2148.51	682
2149.95	650
2151.4	668
2152.84	652
2154.29	668
2155.73	636
2157.17	676
2158.62	656
2160.06	626
2161.5	692
2162.95	630
2164.39	678
2165.83	690
2167.27	672
2168.71	668
2170.15	652
2171.59	650
2173.04	676
2174.48	668
2175.92	684
2177.36	672
2178.79	670
2180.24	662
2181.67	656
2183.11	670
2184.55	672
2185.99	674
2187.43	642
2188.86	684
2190.3	688
2191.74	674
2193.18	662
2194.61	672
2196.05	660
2197.49	664
2198.92	684
2200.36	672
2201.79	666
2203.23	642
2204.66	664
2206.1	648
2207.53	656
2208.97	640
2210.4	684
2211.83	670
2213.27	654
2214.7	670
2216.13	648
2217.57	646
2219	666
2220.43	648
2221.86	638
2223.29	676
2224.72	638
2226.15	656
2227.59	640
2229.02	636
2230.45	660
2231.88	632
2233.31	660
2234.74	676
2236.16	674
2237.59	638
2239.02	670
2240.45	652
2241.88	648
2243.31	620
2244.73	654
2246.16	658
2247.59	652
2249.01	644
2250.44	658
2251.87	608
2253.29	640
2254.72	650
2256.15	630
2257.57	648
2259	652
2260.42	632
2261.84	624
2263.27	644
2264.69	648
2266.12	630
2267.54	634
2268.96	634
2270.39	632
2271.81	632
2273.23	660
2274.65	636
2276.07	672
2277.5	658
2278.92	656
2280.34	670
2281.76	644
2283.18	660
2284.6	632
2286.02	626
2287.44	670
2288.86	648
2290.28	662
2291.7	674
2293.12	662
2294.54	670
2295.95	664
2297.37	686
2298.79	634
2300.21	642
2301.62	666
2303.04	668
2304.46	678
2305.88	698
2307.29	654
2308.71	672
2310.12	684
2311.54	686
2312.95	686
2314.37	638
2315.78	666
2317.2	680
2318.61	698
2320.02	672
2321.44	690
2322.85	698
2324.27	690
2325.68	674
2327.09	732
2328.5	748
2329.92	706
2331.33	722
2332.74	702
2334.15	704
2335.56	702
2336.97	688
2338.38	720
2339.79	680
2341.2	728
2342.61	704
2344.02	712
2345.43	718
2346.84	720
2348.25	710
2349.66	740
2351.07	696
2352.48	724
2353.88	692
2355.29	712
2356.7	734
2358.11	732
2359.51	736
2360.92	748
2362.32	734
2363.73	754
2365.14	720
2366.54	746
2367.95	734
2369.35	760
2370.76	726
2372.16	756
2373.57	778
2374.97	784
2376.37	782
2377.78	760
2379.18	770
2380.58	770
2381.99	766
2383.39	750
2384.79	766
2386.19	794
2387.59	778
2389	768
2390.4	770
2391.8	764
2393.2	762
2394.6	768
2396	792
2397.4	812
2398.8	778
2400.2	794
2401.6	772
2403	754
2404.39	774
2405.79	796
2407.19	798
2408.59	774
2409.99	806
2411.38	822
2412.78	768
2414.18	808
2415.57	782
2416.97	814
2418.37	800
2419.76	816
2421.16	814
2422.55	830
2423.95	856
2425.34	828
2426.74	818
2428.13	836
2429.53	802
2430.92	810
2432.31	808
2433.71	806
2435.1	824
2436.49	830
2437.89	810
2439.28	852
2440.67	790
2442.06	812
2443.45	808
2444.85	808
2446.24	830
2447.63	766
2449.02	816
2450.41	824
2451.8	820
2453.19	804
2454.58	804
2455.97	794
2457.36	844
2458.75	840
2460.13	830
2461.52	804
2462.91	812
2464.3	780
2465.69	806
2467.07	792
2468.46	832
2469.85	788
2471.24	818
2472.62	836
2474.01	788
2475.39	812
2476.78	826
2478.16	790
2479.55	826
2480.94	796
2482.32	816
2483.7	806
2485.09	748
2486.47	820
2487.85	834
2489.24	796
2490.62	830
2492	814
2493.39	782
2494.77	816
2496.15	802
2497.53	830
2498.92	822
2500.3	820
2501.68	838
2503.06	812
2504.44	788
2505.82	792
2507.2	796
2508.58	806
2509.96	812
2511.34	816
2512.72	794
2514.1	812
2515.48	814
2516.85	820
2518.23	812
2519.61	808
2520.99	822
2522.37	826
2523.74	818
2525.12	794
2526.5	838
2527.87	812
2529.25	800
2530.63	844
2532	830
2533.38	832
2534.75	806
2536.13	796
2537.5	782
2538.88	804
2540.25	824
2541.62	826
2543	794
2544.37	810
2545.75	828
2547.12	814
2548.49	840
2549.86	788
2551.24	804
2552.61	788
2553.98	836
2555.35	794
2556.72	818
2558.09	808
2559.47	812
2560.84	812
2562.21	828
2563.57	828
2564.95	848
2566.32	814
2567.68	792
2569.05	824
2570.42	816
2571.79	816
2573.16	790
2574.53	810
2575.9	808
2577.26	804
2578.63	814
2580	810
2581.36	812
2582.73	836
2584.1	850
2585.46	820
2586.83	802
2588.19	836
2589.56	814
2590.93	816
2592.29	824
2593.66	834
2595.02	792
2596.39	802
2597.75	818
2599.11	826
2600.47	830
2601.84	838
2603.2	830
2604.56	834
2605.93	814
2607.29	834
2608.65	828
2610.01	794
2611.38	830
2612.74	822
2614.1	812
2615.46	804
2616.82	830
2618.18	830
2619.54	866
2620.9	808
2622.26	850
2623.62	842
2624.98	834
2626.34	818
2627.69	818
2629.05	838
2630.41	868
2631.77	824
2633.13	840
2634.48	878
2635.84	830
2637.2	852
2638.56	872
2639.91	858
2641.27	856
2642.62	852
2643.98	826
2645.33	846
2646.69	838
2648.05	842
2649.4	856
2650.75	852
2652.11	866
2653.46	852
2654.82	842
2656.17	860
2657.52	866
2658.88	856
2660.23	850
2661.58	872
2662.94	874
2664.29	858
2665.64	852
2666.99	844
2668.34	848
2669.69	874
2671.04	868
2672.39	850
2673.75	864
2675.09	862
2676.45	856
2677.79	864
2679.14	874
2680.49	860
2681.84	840
2683.19	846
2684.54	870
2685.89	880
2687.24	864
2688.58	878
2689.93	882
2691.28	862
2692.63	836
2693.97	848
2695.32	866
2696.67	836
2698.01	898
2699.36	848
2700.7	866
2702.05	852
2703.39	860
2704.74	864
2706.08	876
2707.43	856
2708.77	878
2710.12	862
2711.46	860
2712.8	854
2714.15	866
2715.49	892
2716.83	846
2718.17	868
2719.52	884
2720.86	880
2722.2	874
2723.54	854
2724.88	892
2726.22	882
2727.57	882
2728.91	872
2730.25	854
2731.59	854
2732.93	872
2734.27	866
2735.61	906
2736.95	880
2738.28	844
2739.62	872
2740.96	866
2742.3	840
2743.64	902
2744.98	866
2746.31	904
2747.65	872
2748.99	888
2750.33	904
2751.66	880
2753	864
2754.33	892
2755.67	870
2757.01	916
2758.34	916
2759.68	858
2761.01	890
2762.35	874
2763.68	894
2765.01	916
2766.35	898
2767.68	888
2769.02	892
2770.35	902
2771.68	886
2773.02	892
2774.35	920
2775.68	890
2777.01	918
2778.35	890
2779.68	900
2781.01	914
2782.34	880
2783.67	886
2785	906
2786.33	898
2787.66	930
2788.99	908
2790.32	922
2791.65	916
2792.98	928
2794.31	884
2795.64	914
2796.97	908
2798.3	900
2799.62	922
2800.95	918
2802.28	930
2803.61	910
2804.93	900
2806.26	926
2807.59	958
2808.91	926
2810.24	932
2811.57	932
2812.89	940
2814.22	892
2815.54	918
2816.87	934
2818.19	948
2819.52	910
2820.84	938
2822.17	946
2823.49	948
2824.81	944
2826.14	916
2827.46	960
2828.78	954
2830.11	908
2831.43	938
2832.75	912
2834.07	956
2835.39	932
2836.72	930
2838.04	950
2839.36	956
2840.68	940
2842	932
2843.32	960
2844.64	928
2845.96	938
2847.28	966
2848.6	938
2849.92	962
2851.24	952
2852.56	958
2853.88	962
2855.19	926
2856.51	972
2857.83	976
2859.15	976
2860.46	958
2861.78	990
2863.1	962
2864.42	992
2865.73	988
2867.05	970
2868.36	998
2869.68	1006
2871	956
2872.31	960
2873.63	978
2874.94	972
2876.26	982
2877.57	978
2878.88	980
2880.2	1002
2881.51	968
2882.82	986
2884.14	982
2885.45	988
2886.76	986
2888.08	1004
2889.39	976
2890.7	1014
2892.01	994
2893.33	1004
2894.64	968
2895.95	1008
2897.26	1014
2898.57	982
2899.88	980
2901.19	1034
2902.5	1046
2903.81	1002
2905.12	1044
2906.43	998
2907.74	980
2909.05	1018
2910.35	1024
2911.66	1032
2912.97	1036
2914.28	1026
2915.59	1000
2916.89	996
2918.2	1011.99
2919.51	1008.03
2920.82	1014.38
2922.12	1023.28
2923.43	1043.02
2924.73	1000.1
2926.04	1027.73
2927.35	1016.33
2928.65	1021.59
2929.96	1035.88
2931.26	1034.35
2932.57	1034.69
2933.87	1029.59
2935.17	1037.92
2936.48	1042.35
2937.78	1047.77
2939.09	1049.5
2940.39	1032.7
2941.69	1042.17
2943	1025.44
2944.3	1044.06
2945.6	1063.4
2946.9	1026.25
2948.2	1027.36
2949.51	1043.22
2950.81	1037.52
2952.11	1047.06
2953.41	1044.53
2954.71	1044.84
2956.01	1058.89
2957.31	1038.41
2958.61	1031
2959.91	1053.51
2961.21	1055.47
2962.51	1066.53
2963.81	1031.61
2965.11	1065.19
2966.41	1051.74
2967.71	1076.11
2969.01	1049.48
2970.3	1054.88
2971.6	1056.42
2972.9	1061.71
2974.2	1067.75
2975.49	1071.86
2976.79	1071.52
2978.09	1037.71
2979.39	1070.25
2980.68	1068.74
2981.98	1083.85
2983.27	1080.92
2984.57	1084.27
2985.86	1094.26
2987.16	1089.02
2988.45	1099.14
2989.75	1082.94
2991.04	1068.8
2992.34	1105.47
2993.63	1065.09
2994.93	1098.94
2996.22	1089.58
2997.51	1094.46
2998.81	1093.83
3000.1	1104.76
3001.39	1100.81
3002.68	1095.41
3003.98	1108.43
3005.27	1108.2
3006.56	1106.76
3007.85	1108.85
3009.14	1097.62
3010.43	1119.68
3011.72	1108.27
3013.01	1092.9
3014.31	1113.06
3015.59	1117.01
3016.89	1120.76
3018.18	1112.46
3019.47	1136.36
3020.75	1118.3
3022.04	1147.06
3023.33	1144.26
3024.62	1115.44
3025.91	1144.06
3027.2	1124.25
3028.48	1116.78
3029.77	1144
3031.06	1128.6
3032.35	1156.75
3033.64	1169.84
3034.92	1123.8
3036.21	1134.02
3037.5	1147.42
3038.78	1158.71
3040.07	1152.47
3041.35	1138.5
3042.64	1149.07
3043.92	1171.84
3045.21	1193.59
3046.49	1176.75
3047.78	1166.7
3048.11	1166
3049.4	1192
3050.69	1166
3051.98	1162
3053.27	1126
3054.56	1166
3055.85	1156
3057.14	1148
3058.43	1134
3059.72	1180
3061.01	1132
3062.29	1146
3063.58	1162
3064.87	1148
3066.16	1190
3067.44	1194
3068.73	1172
3070.02	1184
3071.31	1228
3072.59	1180
3073.88	1184
3075.16	1172
3076.45	1192
3077.73	1214
3079.02	1198
3080.31	1204
3081.59	1172
3082.87	1192
3084.16	1200
3085.44	1202
3086.73	1194
3088.01	1210
3089.29	1214
3090.58	1218
3091.86	1230
3093.14	1208
3094.43	1200
3095.71	1218
3096.99	1216
3098.27	1206
3099.55	1246
3100.84	1226
3102.12	1246
3103.4	1242
3104.68	1218
3105.96	1206
3107.24	1242
3108.52	1256
3109.8	1262
3111.08	1258
3112.36	1278
3113.64	1214
3114.92	1238
3116.2	1224
3117.48	1230
3118.75	1234
3120.03	1248
3121.31	1256
3122.59	1230
3123.87	1252
3125.14	1236
3126.42	1266
3127.7	1262
3128.97	1280
3130.25	1278
3131.53	1268
3132.8	1308
3134.08	1266
3135.35	1312
3136.63	1280
3137.9	1284
3139.18	1288
3140.45	1294
3141.73	1288
3143	1318
3144.28	1290
3145.55	1276
3146.82	1302
3148.1	1308
3149.37	1288
3150.64	1304
3151.92	1300
3153.19	1284
3154.46	1296
3155.73	1328
3157.01	1316
3158.28	1294
3159.55	1306
3160.82	1350
3162.09	1306
3163.36	1322
3164.63	1296
3165.9	1316
3167.17	1310
3168.44	1364
3169.71	1328
3170.98	1316
3172.25	1332
3173.52	1346
3174.79	1350
3176.06	1364
3177.32	1376
3178.59	1362
3179.86	1382
3181.13	1326
3182.4	1350
3183.66	1338
3184.93	1316
3186.2	1394
3187.46	1380
3188.73	1350
3190	1342
3191.26	1366
3192.53	1374
3193.79	1372
3195.06	1350
3196.32	1364
3197.59	1320
3198.85	1364
3200.12	1356
3201.38	1380
3202.65	1364
3203.91	1378
3205.17	1352
3206.44	1358
3207.7	1360
3208.96	1376
3210.23	1362
3211.49	1358
3212.75	1366
3214.01	1388
3215.27	1396
3216.54	1382
3217.8	1380
3219.06	1336
3220.32	1380
3221.58	1350
3222.84	1382
3224.1	1350
3225.36	1396
3226.62	1370
3227.88	1338
3229.14	1380
3230.4	1410
3231.66	1366
3232.92	1420
3234.18	1368
3235.44	1398
3236.69	1372
3237.95	1410
3239.21	1420
3240.47	1402
3241.72	1400
3242.98	1408
3244.24	1402
3245.5	1384
3246.75	1426
3248.01	1364
3249.26	1418
3250.52	1400
3251.78	1434
3253.03	1418
3254.29	1422
3255.54	1408
3256.8	1440
3258.05	1480
3259.3	1392
3260.56	1448
3261.81	1446
3263.07	1442
3264.32	1426
3265.57	1474
3266.83	1470
3268.08	1438
3269.33	1438
3270.58	1434
3271.84	1428
3273.09	1448
3274.34	1450
3275.59	1478
3276.84	1488
3278.09	1448
3279.35	1450
3280.6	1462
3281.85	1466
3283.1	1494
3284.35	1412
3285.6	1474
3286.85	1482
3288.1	1464
3289.35	1508
3290.59	1474
3291.84	1498
3293.09	1520
3294.34	1490
3295.59	1518
3296.84	1488
3298.08	1528
3299.33	1516
3300.58	1496
3301.83	1550
3303.07	1528
3304.32	1500
3305.57	1492
3306.81	1528
3308.06	1532
3309.3	1580
3310.55	1526
3311.79	1546
3313.04	1534
3314.29	1524
3315.53	1562
3316.77	1536
3318.02	1518
3319.26	1554
3320.51	1556
3321.75	1564
3322.99	1598
3324.24	1550
3325.48	1546
3326.72	1516
3327.97	1500
3329.21	1598
3330.45	1574
3331.69	1550
3332.93	1560
3334.18	1588
3335.42	1602
3336.66	1590
3337.9	1582
3339.14	1570
3340.38	1556
3341.62	1568
3342.86	1566
3344.1	1584
3345.34	1588
3346.58	1624
3347.82	1588
3349.06	1564
3350.3	1570
3351.54	1564
3352.77	1544
3354.01	1584
3355.25	1614
3356.49	1580
3357.73	1572
3358.96	1600
3360.2	1614
3361.44	1584
3362.67	1606
3363.91	1596
3365.15	1560
3366.38	1620
3367.62	1582
3368.85	1628
3370.09	1580
3371.33	1568
3372.56	1568
3373.8	1570
3375.03	1648
3376.26	1626
3377.5	1654
3378.73	1630
3379.97	1648
3381.2	1632
3382.43	1584
3383.67	1622
3384.9	1632
3386.13	1598
3387.37	1588
3388.6	1610
3389.83	1656
3391.06	1568
3392.29	1642
3393.52	1606
3394.76	1646
3395.99	1598
3397.22	1630
3398.45	1632
3399.68	1660
3400.91	1618
3402.14	1632
3403.37	1668
3404.6	1694
3405.83	1622
3407.06	1680
3408.29	1652
3409.51	1646
3410.74	1680
3411.97	1636
3413.2	1708
3414.43	1680
3415.66	1706
3416.88	1714
3418.11	1660
3419.34	1640
3420.56	1728
3421.79	1732
3423.02	1704
3424.24	1746
3425.47	1732
3426.7	1724
3427.92	1738
3429.15	1698
3430.37	1744
3431.6	1718
3432.82	1742
3434.05	1700
3435.27	1766
3436.5	1728
3437.72	1770
3438.94	1736
3440.17	1772
3441.39	1758
3442.61	1762
3443.84	1786
3445.06	1784
3446.28	1768
3447.51	1768
3448.73	1802
3449.95	1784
3451.17	1746
3452.39	1800
3453.61	1722
3454.83	1768
3456.06	1776
3457.28	1780
3458.5	1756
3459.72	1794
3460.94	1792
3462.16	1804
3463.38	1828
3464.6	1808
3465.82	1820
3467.04	1790
3468.25	1850
3469.47	1806
3470.69	1828
3471.91	1764
3473.13	1820
3474.34	1868
3475.56	1828
3476.78	1822
3478	1808
3479.21	1808
3480.43	1826
3481.65	1800
3482.86	1812
3484.08	1820
3485.3	1850
3486.51	1822
3487.73	1814
3488.94	1816
3490.16	1818
3491.37	1792
3492.59	1784
3493.8	1804
3495.02	1826
3496.23	1838
3497.45	1838
3498.66	1810
3499.87	1804
3501.09	1844
3502.3	1862
3503.51	1840
3504.72	1846
3505.94	1812
3507.15	1840
3508.36	1856
3509.57	1808
3510.79	1848
3512	1816
3513.21	1782
3514.42	1840
3515.63	1790
3516.84	1846
3518.05	1852
3519.26	1824
3520.47	1854
3521.68	1870
3522.89	1818
3524.1	1830
3525.31	1840
3526.52	1802
3527.73	1838
3528.94	1854
3530.14	1880
3531.35	1846
3532.56	1876
3533.77	1844
3534.98	1864
3536.18	1846
3537.39	1838
3538.6	1890
3539.81	1828
3541.01	1874
3542.22	1868
3543.42	1860
3544.63	1862
3545.84	1886
3547.04	1890
3548.25	1876
3549.45	1862
3550.66	1880
3551.86	1872
3553.07	1874
3554.27	1884
3555.47	1878
3556.68	1878
3557.88	1870
3559.09	1894
3560.29	1914
3561.49	1876
3562.7	1916
3563.9	1896
3565.1	1898
3566.3	1900
3567.51	1856
3568.71	1926
3569.91	1920
3571.11	1902
3572.31	1982
3573.51	1904
3574.71	1884
3575.92	1918
3577.12	1936
3578.32	1936
3579.52	1962
3580.72	1972
3581.92	1932
3583.12	1914
3584.31	1988
3585.51	1994
3586.71	1954
3587.91	2002
3589.11	1978
3590.31	1996
3591.51	1984
3592.71	1946
3593.9	1954
3595.1	1958
3596.3	1982
3597.49	1992
3598.69	2028
3599.89	2006
3601.08	2012
3602.28	2042
3603.48	1986
3604.67	2006
3605.87	1994
3607.06	2004
3608.26	2014
3609.45	1938
3610.65	2036
3611.84	2062
3613.04	2046
3614.23	2060
3615.43	2052
3616.62	2040
3617.82	2084
3619.01	2012
3620.2	2078
3621.39	2110
3622.59	2030
3623.78	1998
3624.97	2084
3626.17	2080
3627.36	2028
3628.55	2036
3629.74	2028
3630.93	2070
3632.12	2054
3633.31	2058
3634.51	2062
3635.7	2070
3636.89	2068
3638.08	2116
3639.27	2054
3640.46	2044
3641.65	2078
3642.84	2080
3644.03	2078
3645.22	2080
3646.4	2028
3647.59	2066
3648.78	2074
3649.97	2146
3651.16	2066
3652.35	2092
3653.53	2052
3654.72	2098
3655.91	2062
3657.1	2040
3658.28	2062
3659.47	2050
3660.66	2092
3661.84	2118
3663.03	2090
3664.21	2082
3665.4	2094
3666.59	2070
3667.77	2038
3668.96	2048
3670.14	2046
3671.33	2108
3672.51	2088
3673.69	2082
3674.88	2098
3676.06	2086
3677.25	2066
3678.43	2106
3679.61	2092
3680.8	2092
3681.98	2106
3683.16	2108
3684.34	2072
3685.53	2092
3686.71	2084
3687.89	2098
3689.07	2080
3690.25	2104
3691.44	2130
3692.62	2100
3693.8	2098
3694.98	2124
3696.16	2110
3697.34	2080
3698.52	2110
3699.7	2090
3700.88	2124
3702.06	2136
3703.24	2120
3704.42	2066
3705.6	2132
3706.78	2120
3707.96	2072
3709.13	2112
3710.31	2094
3711.49	2116
3712.67	2102
3713.85	2110
3715.02	2132
3716.2	2132
3717.38	2162
3718.56	2084
3719.73	2160
3720.91	2126
3722.08	2184
3723.26	2194
3724.44	2168
3725.61	2144
3726.79	2208
3727.96	2190
3729.14	2200
3730.31	2166
3731.49	2182
3732.66	2148
3733.84	2232
3735.01	2230
3736.18	2206
3737.36	2242
3738.53	2242
3739.7	2230
3740.88	2246
3742.05	2218
3743.22	2212
3744.4	2246
3745.57	2276
3746.74	2232
3747.91	2168
3749.09	2242
3750.26	2262
3751.43	2238
3752.6	2272
3753.77	2222
3754.94	2260
3756.11	2272
3757.28	2244
3758.45	2300
3759.62	2248
3760.79	2280
3761.96	2254
3763.13	2312
3764.3	2270
3765.47	2278
3766.64	2238
3767.81	2280
3768.98	2298
3770.14	2276
3771.31	2298
3772.48	2302
3773.65	2282
3774.82	2308
3775.98	2274
3777.15	2326
3778.32	2280
3779.48	2316
3780.65	2340
3781.82	2314
3782.98	2322
3784.15	2330
3785.32	2318
3786.48	2334
3787.65	2358
3788.81	2310
3789.98	2320
3791.14	2286
3792.3	2284
3793.47	2332
3794.63	2290
3795.8	2346
3796.96	2302
3798.13	2292
3799.29	2258
3800.45	2312
3801.61	2330
3802.78	2348
3803.94	2278
3805.1	2352
3806.27	2262
3807.43	2320
3808.59	2314
3809.75	2308
3810.91	2282
3812.07	2312
3813.24	2308
3814.4	2316
3815.56	2300
3816.72	2288
3817.88	2322
3819.04	2270
3820.2	2306
3821.36	2312
3822.52	2302
3823.68	2318
3824.84	2328
3826	2304
3827.15	2342
3828.31	2242
3829.47	2300
3830.63	2324
3831.79	2310
3832.95	2310
3834.1	2290
3835.26	2320
3836.42	2312
3837.58	2294
3838.73	2318
3839.89	2302
3841.04	2258
3842.2	2314
3843.36	2294
3844.51	2342
3845.67	2306
3846.83	2322
3847.98	2344
3849.14	2322
3850.29	2316
3851.45	2366
3852.6	2336
3853.76	2308
3854.91	2364
3856.06	2314
3857.22	2308
3858.37	2356
3859.52	2334
3860.68	2346
3861.83	2400
3862.98	2362
3864.14	2410
3865.29	2364
3866.44	2372
3867.59	2358
3868.75	2340
3869.9	2382
3871.05	2398
3872.2	2328
3873.35	2386
3874.5	2394
3875.65	2380
3876.8	2442
3877.95	2314
3879.1	2414
3880.25	2362
3881.4	2406
3882.55	2456
3883.7	2428
3884.85	2394
3886	2380
3887.15	2442
3888.3	2410
3889.45	2426
3890.6	2418
3891.75	2448
3892.89	2408
3894.04	2446
3895.19	2470
3896.34	2416
3897.48	2478
3898.63	2450
3899.78	2482
3900.92	2490
3902.07	2404
3903.22	2494
3904.36	2432
3905.51	2542
3906.65	2480
3907.8	2460
3908.94	2494
3910.09	2462
3911.23	2454
3912.38	2484
3913.52	2490
3914.67	2532
3915.81	2482
3916.96	2502
3918.1	2480
3919.24	2536
3920.39	2460
3921.53	2504
3922.67	2472
3923.82	2510
3924.96	2518
3926.1	2492
3927.24	2542
3928.39	2580
3929.53	2518
3930.67	2502
3931.81	2532
3932.95	2542
3934.09	2552
3935.24	2528
3936.38	2544
3937.52	2460
3938.66	2580
3939.8	2520
3940.94	2532
3942.08	2552
3943.22	2558
3944.36	2456
3945.5	2536
3946.63	2552
3947.77	2580
3948.91	2550
3950.05	2488
3951.19	2520
3952.33	2524
3953.47	2496
3954.6	2544
3955.74	2512
3956.88	2526
3958.02	2524
3959.15	2538
3960.29	2494
3961.43	2502
3962.56	2508
3963.7	2528
3964.84	2542
3965.97	2504
3967.11	2524
3968.24	2534
3969.38	2512
3970.51	2548
3971.65	2528
3972.78	2524
3973.92	2532
3975.05	2590
3976.19	2496
3977.32	2524
3978.45	2518
3979.59	2564
3980.72	2528
3981.85	2504
3982.99	2538
3984.12	2544
3985.25	2556
3986.39	2524
3987.52	2514
3988.65	2556
3989.78	2528
3990.91	2606
3992.05	2552
3993.18	2568
3994.31	2502
3995.44	2572
3996.57	2536
3997.7	2552
3998.83	2506
3999.96	2566
