#Acq. time (s)=	20
#Accumulations=	2
#Range (cm-¹)=	50...4000
#Windows=	3
#Autofocus=	Off
#AutoExposure=	Off
#Spike filter=	Multiple accum.
#Delay time (s)=	0
#Binning=	1
#Readout mode=	Signal
#DeNoise=	Off
#ICS correction=	Off
#Dark correction=	Off
#Inst. Process=	Off
#Instrument=	LabRAM HR Evol
#Detector=	Syncerity OE
#Objective=	x100_VIS
#Grating=	600 (500nm)
#ND Filter=	100%
#Laser=	532nm_Edge
#Hole=	100.021
#Range=	Visible
#Project=	Omar
#Sample=	
#Site=	21-09-22
#Title=	 CN-Sastre
#Remark=	
#Date=	21.09.2022 12:38
#Acquired=	21.09.2022 12:38:52
51.0918	42
52.9354	44
54.7807	46
56.6235	50
58.4681	72
60.3102	108
62.154	166
63.9954	224
65.8385	268
67.6792	336
69.5216	416
71.3615	550
73.2032	734
75.0424	942
76.8834	1064
78.7218	1136
80.5621	1312
82.3998	1504
84.2393	1618
86.0764	1646
87.9152	1746
89.7515	1876
91.5874	1870
93.4251	1858
95.2603	1790
97.0973	1746
98.9318	1814
100.766	1786
102.602	1804
104.435	1826
106.27	1896
108.103	1880
109.936	1872
111.77	1876
113.601	1916
115.433	1896
117.266	1880
119.096	1874
120.926	1888
122.758	1904
124.588	1846
126.417	1818
128.246	1830
130.076	1794
131.904	1790
133.732	1754
135.561	1812
137.388	1834
139.215	1834
141.041	1770
142.869	1802
144.695	1826
146.52	1790
148.345	1818
150.171	1796
151.995	1788
153.819	1844
155.642	1778
157.465	1806
159.29	1764
161.112	1790
162.934	1770
164.756	1728
166.577	1774
168.398	1712
170.219	1732
172.041	1712
173.861	1722
175.68	1728
177.499	1710
179.318	1690
181.137	1636
182.955	1674
184.772	1714
186.592	1714
188.409	1672
190.225	1676
192.042	1670
193.857	1700
195.673	1678
197.488	1684
199.303	1676
201.118	1626
202.932	1672
204.746	1644
206.559	1628
208.372	1660
210.185	1640
211.997	1640
213.809	1630
215.621	1626
217.432	1618
219.243	1626
221.054	1636
222.864	1566
224.674	1588
226.483	1608
228.293	1568
230.101	1552
231.91	1600
233.718	1520
235.524	1616
237.331	1592
239.138	1588
240.945	1626
242.751	1614
244.557	1624
246.363	1604
248.168	1600
249.971	1600
251.776	1600
253.58	1594
255.384	1588
257.188	1606
258.991	1604
260.792	1634
262.594	1614
264.396	1636
266.198	1598
268	1608
269.799	1598
271.599	1600
273.4	1592
275.2	1634
277	1638
278.797	1612
280.596	1594
282.395	1590
284.193	1594
285.989	1624
287.786	1596
289.584	1556
291.378	1616
293.175	1620
294.971	1594
296.765	1630
298.561	1604
300.356	1636
302.148	1656
303.943	1626
305.737	1674
307.529	1652
309.322	1624
311.115	1592
312.906	1652
314.698	1660
316.49	1646
318.28	1708
320.071	1672
321.86	1660
323.651	1642
325.441	1632
327.229	1690
329.019	1636
330.806	1636
332.595	1678
334.381	1660
336.17	1656
337.955	1674
339.743	1668
341.528	1654
343.315	1642
345.099	1664
346.885	1668
348.669	1688
350.455	1614
352.238	1676
354.022	1658
355.805	1672
357.589	1638
359.371	1654
361.154	1682
362.935	1722
364.718	1676
366.498	1706
368.278	1724
370.06	1698
371.839	1708
373.62	1706
375.398	1692
377.177	1738
378.956	1716
380.734	1750
382.513	1744
384.29	1728
386.067	1710
387.845	1774
389.621	1732
391.396	1702
393.173	1668
394.948	1744
396.723	1742
398.499	1684
400.273	1710
402.046	1744
403.819	1732
405.594	1722
407.366	1718
409.138	1738
410.91	1702
412.683	1764
414.454	1758
416.225	1746
417.995	1690
419.768	1708
421.537	1702
423.307	1738
425.076	1700
426.844	1698
428.615	1736
430.382	1682
432.15	1694
433.917	1700
435.684	1722
437.451	1726
439.219	1760
440.985	1756
442.751	1722
444.516	1722
446.281	1746
448.045	1756
449.81	1786
451.574	1776
453.337	1758
455.102	1764
456.865	1736
458.628	1758
460.39	1752
462.152	1722
463.913	1732
465.674	1744
467.435	1758
469.196	1698
470.956	1792
472.716	1744
474.475	1710
476.234	1760
477.993	1738
479.752	1750
481.51	1698
483.268	1730
485.025	1688
486.782	1698
488.539	1686
490.295	1730
492.051	1666
493.807	1684
495.563	1656
497.316	1638
499.07	1648
500.825	1696
502.579	1634
504.333	1626
506.086	1636
507.839	1660
509.592	1676
511.344	1586
513.094	1678
514.846	1650
516.597	1746
518.349	1680
520.099	1716
521.85	1756
523.598	1726
525.347	1716
527.097	1754
528.846	1756
530.595	1824
532.341	1860
534.089	1962
535.837	1968
537.584	1974
539.329	2052
541.076	2082
542.822	2086
544.568	2222
546.312	2140
548.057	2150
549.802	2264
551.545	2256
553.289	2270
555.033	2272
556.775	2346
558.518	2304
560.261	2274
562.002	2284
563.744	2288
565.487	2256
567.226	2218
568.968	2216
570.709	2172
572.447	2212
574.188	2238
575.926	2188
577.665	2166
579.405	2084
581.142	2100
582.88	2082
584.617	2042
586.355	2056
588.091	2066
589.828	1972
591.565	1896
593.3	1946
595.036	1930
596.77	1900
598.506	1904
600.239	1860
601.974	1862
603.707	1864
605.442	1794
607.174	1838
608.905	1762
610.639	1780
612.37	1710
614.103	1736
615.833	1738
617.565	1700
619.295	1676
621.026	1672
622.755	1636
624.484	1630
626.215	1668
627.943	1614
629.67	1556
631.4	1558
633.127	1554
634.856	1570
636.582	1510
638.308	1542
640.036	1532
641.762	1470
643.487	1490
645.214	1480
646.938	1468
648.662	1464
650.386	1380
652.112	1416
653.835	1364
655.558	1384
657.282	1340
659.005	1368
660.726	1320
662.448	1302
664.171	1312
665.892	1346
667.613	1308
669.333	1294
671.053	1248
672.774	1250
674.494	1240
676.213	1202
677.931	1196
679.649	1230
681.369	1158
683.087	1158
684.804	1124
686.521	1158
688.238	1108
689.954	1108
691.67	1118
693.386	1084
695.103	1048
696.818	1086
698.533	1102
700.247	1054
701.961	1030
703.675	1054
705.389	1002
707.102	1032
708.814	992
710.527	998
712.239	998
713.951	956
715.662	972
717.373	980
719.084	954
720.795	918
722.505	920
724.215	916
725.924	922
727.633	900
729.342	926
731.051	884
732.759	928
734.467	956
736.174	908
737.882	940
739.589	922
741.295	910
742.999	906
744.705	942
746.411	900
748.116	926
749.821	950
751.526	916
753.23	888
754.934	910
756.636	914
758.34	960
760.043	938
761.745	936
763.448	964
765.148	974
766.85	940
768.551	970
770.252	970
771.953	934
773.652	976
775.352	962
777.052	936
778.751	932
780.448	954
782.147	1028
783.846	1010
785.544	988
787.24	986
788.938	1022
790.635	966
792.33	922
794.027	960
795.723	936
797.417	992
799.113	940
800.808	926
802.501	930
804.196	924
805.89	932
807.582	908
809.276	928
810.968	944
812.661	912
814.354	874
816.044	866
817.736	862
819.426	866
821.118	828
822.807	816
824.498	862
826.186	812
827.877	838
829.565	802
831.254	774
832.942	762
834.631	766
836.317	750
838.006	770
839.692	792
841.38	722
843.065	734
844.752	740
846.437	748
848.123	748
849.808	694
851.493	726
853.177	744
854.86	742
856.545	722
858.228	734
859.912	704
861.594	720
863.276	700
864.959	730
866.64	734
868.321	748
870.003	698
871.683	726
873.363	700
875.044	718
876.723	738
878.402	734
880.083	714
881.761	716
883.439	736
885.116	764
886.795	732
888.472	734
890.149	788
891.825	750
893.503	716
895.179	740
896.854	786
898.529	810
900.204	772
901.88	772
903.555	762
905.228	794
906.902	782
908.575	788
910.25	792
911.922	836
913.595	848
915.266	846
916.938	834
918.609	840
920.28	870
921.951	882
923.623	918
925.293	896
926.963	926
928.633	960
930.302	958
931.97	978
933.639	978
935.307	968
936.975	996
938.642	992
940.31	1024
941.977	1010
943.643	1010
945.31	1012
946.976	1030
948.641	1044
950.307	1034
951.972	1026
953.636	1064
955.301	1058
956.965	1064
958.629	1064
960.292	1070
961.955	1058
963.618	1050
965.279	1050
966.941	1064
968.603	1032
970.265	1080
971.926	1088
973.587	1084
975.248	1086
976.908	1086
978.566	1090
980.226	1074
981.886	1086
983.545	1074
985.204	1118
986.86	1144
988.519	1100
990.177	1132
991.834	1122
993.491	1136
995.147	1174
996.803	1172
998.46	1138
1000.12	1130
1001.77	1180
1003.43	1170
1005.08	1180
1006.73	1196
1008.39	1230
1010.04	1214
1011.7	1234
1013.35	1216
1015	1182
1016.65	1262
1018.3	1252
1019.96	1282
1021.61	1272
1023.26	1336
1024.91	1278
1026.56	1346
1028.21	1372
1029.86	1378
1031.51	1314
1033.16	1430
1034.81	1430
1036.46	1440
1038.1	1490
1039.75	1472
1041.4	1498
1043.05	1504
1044.69	1520
1046.34	1588
1047.99	1628
1049.63	1608
1051.28	1606
1052.92	1624
1054.57	1656
1056.21	1704
1057.86	1738
1059.5	1722
1061.14	1770
1062.79	1792
1064.43	1860
1066.07	1818
1067.72	1840
1069.36	1884
1071	1914
1072.64	1942
1074.28	1984
1075.92	2026
1077.57	2010
1079.2	2066
1080.84	2078
1082.48	2104
1084.12	2172
1085.76	2192
1087.4	2158
1089.04	2210
1090.68	2176
1092.32	2224
1093.95	2156
1095.59	2174
1097.22	2200
1098.86	2184
1100.5	2162
1102.13	2202
1103.77	2096
1105.4	2136
1107.04	2102
1108.67	2074
1110.31	1974
1111.94	1988
1113.58	1982
1115.21	1924
1116.84	1892
1118.47	1898
1120.1	1838
1121.74	1808
1123.37	1752
1125	1762
1126.63	1658
1128.26	1638
1129.89	1622
1131.52	1620
1133.15	1566
1134.78	1506
1136.41	1530
1138.04	1436
1139.67	1406
1141.3	1394
1142.92	1372
1144.55	1348
1146.18	1350
1147.8	1334
1149.43	1296
1151.06	1250
1152.68	1278
1154.31	1246
1155.93	1206
1157.56	1236
1159.18	1192
1160.81	1192
1162.43	1122
1164.06	1136
1165.68	1110
1167.3	1114
1168.93	1086
1170.55	1082
1172.17	1078
1173.79	1048
1175.41	1026
1177.03	1000
1178.66	982
1180.28	1006
1181.9	952
1183.52	962
1185.14	964
1186.75	958
1188.37	904
1189.99	912
1191.61	874
1193.23	868
1194.85	870
1196.46	872
1198.08	822
1199.7	854
1201.31	814
1202.93	826
1204.55	788
1206.16	816
1207.78	770
1209.39	804
1211.01	788
1212.62	760
1214.24	752
1215.85	780
1217.46	742
1219.08	722
1220.69	744
1222.3	728
1223.91	756
1225.53	718
1227.14	720
1228.75	748
1230.36	708
1231.97	692
1233.58	700
1235.19	714
1236.8	694
1238.41	668
1240.02	702
1241.63	700
1243.23	676
1244.84	688
1246.45	692
1248.06	686
1249.67	660
1251.27	676
1252.88	696
1254.48	700
1256.09	686
1257.7	682
1259.3	658
1260.91	666
1262.51	682
1264.12	654
1265.72	676
1267.32	680
1268.93	638
1270.53	682
1272.13	638
1273.73	682
1275.34	690
1276.94	672
1278.54	664
1280.14	662
1281.74	662
1283.35	672
1284.94	706
1286.54	672
1288.15	668
1289.74	664
1291.34	674
1292.94	708
1294.54	692
1296.14	686
1297.74	678
1299.33	662
1300.93	690
1302.53	674
1304.12	660
1305.72	682
1307.32	656
1308.91	674
1310.51	650
1312.1	716
1313.7	674
1315.29	686
1316.89	684
1318.48	674
1320.07	688
1321.67	670
1323.26	672
1324.85	708
1326.45	682
1328.04	674
1329.63	678
1331.22	684
1332.81	694
1334.4	672
1335.99	688
1337.58	696
1339.17	710
1340.77	678
1342.35	696
1343.94	682
1345.53	720
1347.12	668
1348.71	696
1350.3	694
1351.88	716
1353.47	678
1355.06	684
1356.64	690
1358.23	688
1359.82	714
1361.4	690
1362.99	704
1364.57	680
1366.16	674
1367.74	714
1369.33	678
1370.91	702
1372.49	708
1374.08	684
1375.66	658
1377.24	684
1378.82	708
1380.41	658
1381.99	670
1383.57	664
1385.15	688
1386.73	672
1388.31	704
1389.89	658
1391.47	696
1393.05	662
1394.63	684
1396.21	674
1397.79	710
1399.37	664
1400.95	692
1402.52	666
1404.1	636
1405.68	710
1407.25	668
1408.83	708
1410.41	692
1411.98	700
1413.56	678
1415.13	688
1416.71	702
1418.29	706
1419.86	708
1421.43	704
1423.01	696
1424.58	672
1426.15	696
1427.73	684
1429.3	684
1430.87	688
1432.44	700
1434.02	686
1435.59	686
1437.16	714
1438.73	682
1440.3	720
1441.87	656
1443.44	664
1445.01	686
1446.58	708
1448.15	694
1449.72	706
1451.29	700
1452.85	700
1454.42	708
1455.99	678
1457.56	694
1459.12	680
1460.69	684
1462.26	696
1463.82	694
1465.39	686
1466.95	684
1468.52	698
1470.08	694
1471.65	712
1473.21	702
1474.78	676
1476.34	692
1477.9	672
1479.47	718
1481.03	716
1482.59	672
1484.16	708
1485.72	694
1487.28	720
1488.84	710
1490.4	668
1491.96	710
1493.52	726
1495.08	678
1496.64	708
1498.2	716
1499.76	700
1501.32	722
1502.88	702
1504.44	692
1506	714
1507.55	734
1509.11	736
1510.67	742
1512.22	716
1513.78	732
1515.34	724
1516.89	734
1518.45	696
1520.01	742
1521.56	702
1523.11	706
1524.67	724
1526.22	726
1527.78	740
1529.33	720
1530.88	698
1532.44	720
1533.99	718
1535.54	696
1537.09	698
1538.65	692
1540.2	736
1541.75	728
1543.3	700
1544.85	714
1546.4	708
1547.95	736
1549.5	702
1551.05	698
1552.6	720
1554.15	710
1555.7	732
1557.25	718
1558.79	706
1560.34	750
1561.89	746
1563.43	714
1564.98	738
1566.53	740
1568.08	694
1569.62	692
1571.17	722
1572.71	712
1574.26	734
1575.8	732
1577.35	698
1578.89	736
1580.43	712
1581.98	690
1583.52	720
1585.06	738
1586.61	700
1588.15	740
1589.69	742
1591.23	698
1592.77	724
1594.32	756
1595.86	686
1597.4	704
1598.94	666
1600.48	676
1602.02	718
1603.56	736
1605.1	734
1606.64	737.372
1608.18	686.897
1609.71	701.587
1611.25	729.493
1612.79	715.296
1614.33	671.926
1615.86	707.942
1617.4	717.44
1618.94	705.11
1620.47	661.764
1622.01	701.641
1623.55	714.611
1625.08	692.41
1626.62	688.171
1628.15	705.351
1629.69	697.572
1631.22	675.355
1632.75	676.878
1634.29	699.953
1635.82	684.064
1637.35	699.273
1638.89	697.944
1640.42	692.768
1641.95	710.27
1643.48	676.806
1645.02	683.87
1646.55	682.308
1648.08	682.655
1649.61	673.058
1651.14	680.545
1652.67	684.306
1654.2	672.26
1655.73	674.345
1657.26	677.555
1658.79	701.983
1660.32	665.935
1661.84	683.321
1663.37	670.396
1664.9	690.258
1666.43	654.342
1667.96	691.489
1669.48	674.01
1671.01	665.167
1672.54	676.263
1674.06	690.02
1675.59	667.269
1677.11	680.619
1678.64	665.862
1680.16	655.244
1681.69	680.992
1683.21	673.242
1684.74	669.852
1686.26	667.814
1687.79	654.91
1689.31	683.193
1690.83	669.534
1692.35	662.944
1693.88	664.94
1695.4	665.764
1696.92	648.685
1698.44	668.667
1699.96	660.355
1701.48	647.001
1703.01	663.981
1704.53	662.195
1706.05	673.187
1707.57	656.743
1709.09	655.07
1710.6	672.298
1712.12	648.645
1713.64	644.591
1715.16	660.796
1716.68	672.695
1718.2	659.92
1719.71	656.701
1721.23	658.192
1722.75	640.82
1724.27	624.052
1725.78	656.952
1727.3	637.281
1728.81	656.697
1730.33	643.61
1731.84	647.45
1733.36	642.67
1734.88	640.32
1736.39	634.477
1737.9	648.615
1739.42	657.566
1740.93	634.12
1742.44	635.134
1743.96	637.966
1745.47	640.004
1746.98	633.036
1748.49	627.961
1750.01	611.23
1751.52	617.834
1753.03	618.074
1754.54	610.264
1756.05	628.21
1757.56	630.594
1757.63	630
1759.14	642
1760.66	630
1762.18	638
1763.69	652
1765.21	640
1766.72	646
1768.24	640
1769.75	618
1771.27	620
1772.78	612
1774.3	620
1775.81	608
1777.32	604
1778.84	604
1780.35	642
1781.86	628
1783.38	618
1784.89	652
1786.4	614
1787.91	606
1789.42	628
1790.93	628
1792.44	642
1793.95	618
1795.47	640
1796.98	654
1798.48	640
1799.99	630
1801.5	642
1803.01	622
1804.52	620
1806.03	638
1807.54	630
1809.04	654
1810.55	594
1812.06	624
1813.57	636
1815.07	634
1816.58	614
1818.08	598
1819.59	616
1821.09	608
1822.6	642
1824.11	610
1825.61	640
1827.11	602
1828.62	630
1830.12	638
1831.63	614
1833.13	632
1834.63	622
1836.13	632
1837.64	612
1839.14	598
1840.64	646
1842.14	630
1843.64	646
1845.14	642
1846.64	636
1848.14	640
1849.64	616
1851.14	580
1852.64	646
1854.14	612
1855.64	620
1857.14	614
1858.64	630
1860.14	624
1861.64	624
1863.13	636
1864.63	616
1866.13	642
1867.63	640
1869.12	646
1870.62	622
1872.11	618
1873.61	646
1875.1	620
1876.6	600
1878.09	628
1879.59	606
1881.08	618
1882.58	598
1884.07	640
1885.56	646
1887.06	634
1888.55	632
1890.04	638
1891.54	640
1893.03	622
1894.52	650
1896.01	634
1897.5	650
1898.99	626
1900.48	624
1901.97	636
1903.46	648
1904.96	642
1906.44	644
1907.93	636
1909.42	612
1910.91	634
1912.4	638
1913.89	628
1915.38	672
1916.86	666
1918.35	638
1919.84	640
1921.32	624
1922.81	630
1924.3	658
1925.78	650
1927.27	606
1928.76	662
1930.24	638
1931.72	626
1933.21	626
1934.69	648
1936.18	656
1937.66	612
1939.15	636
1940.63	646
1942.11	654
1943.59	644
1945.08	642
1946.56	666
1948.04	636
1949.52	620
1951	650
1952.48	648
1953.97	632
1955.45	664
1956.93	624
1958.41	658
1959.89	644
1961.37	646
1962.85	640
1964.32	636
1965.8	644
1967.28	632
1968.76	644
1970.24	658
1971.71	636
1973.19	638
1974.67	646
1976.15	616
1977.62	642
1979.1	644
1980.57	628
1982.05	618
1983.53	640
1985	668
1986.48	628
1987.95	638
1989.42	626
1990.9	652
1992.37	648
1993.85	632
1995.32	640
1996.79	642
1998.26	650
1999.74	644
2001.21	654
2002.68	644
2004.15	632
2005.62	626
2007.09	652
2008.56	630
2010.03	630
2011.51	640
2012.98	650
2014.44	672
2015.92	634
2017.38	628
2018.85	656
2020.32	650
2021.79	650
2023.26	682
2024.73	634
2026.19	626
2027.66	660
2029.13	632
2030.59	634
2032.06	610
2033.53	676
2034.99	660
2036.46	654
2037.92	656
2039.39	660
2040.85	660
2042.32	638
2043.78	664
2045.25	650
2046.71	640
2048.17	654
2049.64	630
2051.1	650
2052.56	648
2054.02	658
2055.49	662
2056.95	642
2058.41	672
2059.87	654
2061.33	672
2062.79	652
2064.25	654
2065.71	618
2067.17	676
2068.63	658
2070.09	644
2071.55	650
2073.01	654
2074.47	642
2075.93	646
2077.39	630
2078.84	656
2080.3	658
2081.76	674
2083.22	612
2084.67	642
2086.13	650
2087.59	672
2089.04	674
2090.5	650
2091.95	656
2093.41	670
2094.86	658
2096.32	650
2097.77	642
2099.23	640
2100.68	650
2102.13	654
2103.59	642
2105.04	646
2106.49	648
2107.95	600
2109.4	652
2110.85	648
2112.3	658
2113.75	648
2115.21	646
2116.66	642
2118.11	664
2119.56	630
2121.01	656
2122.46	650
2123.91	670
2125.36	642
2126.8	626
2128.25	644
2129.7	642
2131.15	642
2132.6	654
2134.05	666
2135.49	668
2136.94	652
2138.39	662
2139.83	660
2141.28	642
2142.73	664
2144.17	648
2145.62	648
2147.06	656
2148.51	654
2149.95	640
2151.4	640
2152.84	660
2154.29	676
2155.73	650
2157.17	658
2158.62	658
2160.06	650
2161.5	666
2162.95	654
2164.39	648
2165.83	658
2167.27	670
2168.71	642
2170.15	648
2171.59	654
2173.04	666
2174.48	646
2175.92	650
2177.36	646
2178.79	654
2180.24	664
2181.67	660
2183.11	668
2184.55	658
2185.99	688
2187.43	616
2188.86	666
2190.3	648
2191.74	646
2193.18	652
2194.61	662
2196.05	664
2197.49	630
2198.92	642
2200.36	626
2201.79	660
2203.23	652
2204.66	658
2206.1	648
2207.53	656
2208.97	632
2210.4	630
2211.83	664
2213.27	662
2214.7	654
2216.13	634
2217.57	642
2219	676
2220.43	650
2221.86	624
2223.29	598
2224.72	638
2226.15	662
2227.59	644
2229.02	614
2230.45	622
2231.88	658
2233.31	640
2234.74	646
2236.16	646
2237.59	654
2239.02	602
2240.45	634
2241.88	638
2243.31	662
2244.73	612
2246.16	624
2247.59	642
2249.01	646
2250.44	648
2251.87	622
2253.29	622
2254.72	644
2256.15	624
2257.57	654
2259	652
2260.42	634
2261.84	646
2263.27	666
2264.69	622
2266.12	652
2267.54	622
2268.96	620
2270.39	608
2271.81	648
2273.23	646
2274.65	642
2276.07	626
2277.5	632
2278.92	634
2280.34	640
2281.76	608
2283.18	644
2284.6	646
2286.02	660
2287.44	650
2288.86	634
2290.28	646
2291.7	654
2293.12	650
2294.54	650
2295.95	664
2297.37	644
2298.79	670
2300.21	660
2301.62	652
2303.04	680
2304.46	676
2305.88	672
2307.29	680
2308.71	654
2310.12	646
2311.54	682
2312.95	680
2314.37	702
2315.78	680
2317.2	650
2318.61	644
2320.02	686
2321.44	696
2322.85	684
2324.27	686
2325.68	708
2327.09	694
2328.5	748
2329.92	712
2331.33	686
2332.74	678
2334.15	684
2335.56	690
2336.97	662
2338.38	690
2339.79	692
2341.2	706
2342.61	692
2344.02	726
2345.43	714
2346.84	704
2348.25	732
2349.66	716
2351.07	712
2352.48	692
2353.88	702
2355.29	702
2356.7	732
2358.11	740
2359.51	724
2360.92	756
2362.32	718
2363.73	754
2365.14	734
2366.54	736
2367.95	708
2369.35	746
2370.76	776
2372.16	766
2373.57	770
2374.97	764
2376.37	732
2377.78	752
2379.18	744
2380.58	756
2381.99	764
2383.39	754
2384.79	778
2386.19	796
2387.59	776
2389	802
2390.4	784
2391.8	776
2393.2	784
2394.6	764
2396	790
2397.4	780
2398.8	758
2400.2	746
2401.6	768
2403	778
2404.39	800
2405.79	766
2407.19	800
2408.59	798
2409.99	802
2411.38	812
2412.78	772
2414.18	782
2415.57	794
2416.97	772
2418.37	828
2419.76	780
2421.16	838
2422.55	802
2423.95	810
2425.34	808
2426.74	818
2428.13	822
2429.53	804
2430.92	842
2432.31	838
2433.71	818
2435.1	820
2436.49	788
2437.89	838
2439.28	820
2440.67	804
2442.06	816
2443.45	814
2444.85	784
2446.24	800
2447.63	828
2449.02	814
2450.41	816
2451.8	810
2453.19	850
2454.58	820
2455.97	820
2457.36	806
2458.75	794
2460.13	804
2461.52	810
2462.91	854
2464.3	814
2465.69	818
2467.07	840
2468.46	818
2469.85	774
2471.24	812
2472.62	848
2474.01	782
2475.39	806
2476.78	814
2478.16	804
2479.55	808
2480.94	776
2482.32	788
2483.7	800
2485.09	786
2486.47	808
2487.85	820
2489.24	834
2490.62	832
2492	826
2493.39	834
2494.77	782
2496.15	790
2497.53	822
2498.92	804
2500.3	784
2501.68	828
2503.06	826
2504.44	818
2505.82	832
2507.2	814
2508.58	810
2509.96	804
2511.34	810
2512.72	786
2514.1	804
2515.48	840
2516.85	792
2518.23	818
2519.61	824
2520.99	830
2522.37	822
2523.74	810
2525.12	808
2526.5	826
2527.87	822
2529.25	834
2530.63	802
2532	814
2533.38	838
2534.75	798
2536.13	832
2537.5	790
2538.88	818
2540.25	812
2541.62	822
2543	792
2544.37	790
2545.75	796
2547.12	838
2548.49	814
2549.86	822
2551.24	806
2552.61	808
2553.98	796
2555.35	788
2556.72	812
2558.09	802
2559.47	804
2560.84	792
2562.21	834
2563.57	832
2564.95	818
2566.32	810
2567.68	842
2569.05	832
2570.42	808
2571.79	790
2573.16	806
2574.53	812
2575.9	820
2577.26	802
2578.63	814
2580	800
2581.36	816
2582.73	818
2584.1	820
2585.46	828
2586.83	816
2588.19	814
2589.56	796
2590.93	814
2592.29	780
2593.66	828
2595.02	802
2596.39	812
2597.75	826
2599.11	824
2600.47	836
2601.84	824
2603.2	814
2604.56	822
2605.93	806
2607.29	826
2608.65	828
2610.01	784
2611.38	832
2612.74	842
2614.1	812
2615.46	820
2616.82	850
2618.18	800
2619.54	810
2620.9	850
2622.26	832
2623.62	858
2624.98	826
2626.34	780
2627.69	814
2629.05	828
2630.41	836
2631.77	850
2633.13	844
2634.48	826
2635.84	834
2637.2	832
2638.56	828
2639.91	846
2641.27	846
2642.62	840
2643.98	856
2645.33	826
2646.69	834
2648.05	824
2649.4	839
2650.75	854
2652.11	868
2653.46	878
2654.82	852
2656.17	818
2657.52	862
2658.88	844
2660.23	832
2661.58	862
2662.94	838
2664.29	834
2665.64	848
2666.99	846
2668.34	854
2669.69	828
2671.04	884
2672.39	806
2673.75	812
2675.09	822
2676.45	850
2677.79	844
2679.14	876
2680.49	842
2681.84	816
2683.19	846
2684.54	848
2685.89	868
2687.24	850
2688.58	830
2689.93	830
2691.28	862
2692.63	858
2693.97	840
2695.32	858
2696.67	852
2698.01	812
2699.36	864
2700.7	880
2702.05	858
2703.39	862
2704.74	834
2706.08	840
2707.43	824
2708.77	854
2710.12	846
2711.46	858
2712.8	876
2714.15	884
2715.49	844
2716.83	856
2718.17	842
2719.52	884
2720.86	842
2722.2	846
2723.54	860
2724.88	858
2726.22	854
2727.57	866
2728.91	866
2730.25	888
2731.59	840
2732.93	848
2734.27	902
2735.61	866
2736.95	880
2738.28	846
2739.62	876
2740.96	854
2742.3	894
2743.64	848
2744.98	872
2746.31	866
2747.65	882
2748.99	870
2750.33	866
2751.66	888
2753	856
2754.33	926
2755.67	890
2757.01	870
2758.34	886
2759.68	890
2761.01	896
2762.35	898
2763.68	896
2765.01	880
2766.35	906
2767.68	858
2769.02	906
2770.35	904
2771.68	924
2773.02	884
2774.35	890
2775.68	920
2777.01	910
2778.35	916
2779.68	902
2781.01	906
2782.34	922
2783.67	880
2785	920
2786.33	912
2787.66	954
2788.99	920
2790.32	924
2791.65	906
2792.98	952
2794.31	922
2795.64	918
2796.97	924
2798.3	940
2799.62	950
2800.95	926
2802.28	950
2803.61	924
2804.93	908
2806.26	916
2807.59	922
2808.91	934
2810.24	930
2811.57	934
2812.89	930
2814.22	958
2815.54	910
2816.87	926
2818.19	956
2819.52	960
2820.84	966
2822.17	952
2823.49	924
2824.81	966
2826.14	932
2827.46	962
2828.78	940
2830.11	948
2831.43	924
2832.75	928
2834.07	976
2835.39	940
2836.72	958
2838.04	962
2839.36	960
2840.68	978
2842	936
2843.32	954
2844.64	984
2845.96	966
2847.28	964
2848.6	970
2849.92	976
2851.24	982
2852.56	970
2853.88	956
2855.19	956
2856.51	992
2857.83	992
2859.15	1010
2860.46	938
2861.78	996
2863.1	976
2864.42	984
2865.73	980
2867.05	974
2868.36	984
2869.68	986
2871	1006
2872.31	982
2873.63	990
2874.94	992
2876.26	1030
2877.57	996
2878.88	986
2880.2	958
2881.51	1014
2882.82	990
2884.14	968
2885.45	994
2886.76	1004
2888.08	1004
2889.39	1018
2890.7	976
2892.01	1000
2893.33	1002
2894.64	1026
2895.95	1046
2897.26	1044
2898.57	988
2899.88	1028
2901.19	994
2902.5	1012
2903.81	1016
2905.12	1024
2906.43	994
2907.74	1020
2909.05	1016
2910.35	1038
2911.66	1032
2912.97	964
2914.28	1020
2915.59	1034
2916.89	1024
2918.2	1029.99
2919.51	1023.86
2920.82	1039.81
2922.12	1049.59
2923.43	1038.27
2924.73	1024.29
2926.04	1034.6
2927.35	1008.05
2928.65	1027.3
2929.96	1049.82
2931.26	1065.58
2932.57	1058.36
2933.87	1015.47
2935.17	1046.2
2936.48	1066.5
2937.78	1030.54
2939.09	1028.53
2940.39	1052.67
2941.69	1033.24
2943	1042.52
2944.3	1065.55
2945.6	1066.2
2946.9	1069.06
2948.2	1041.88
2949.51	1047.1
2950.81	1063.52
2952.11	1052.18
2953.41	1032.64
2954.71	1048.62
2956.01	1063.32
2957.31	1064.22
2958.61	1049.32
2959.91	1061.17
2961.21	1069.43
2962.51	1062.9
2963.81	1059.92
2965.11	1071.85
2966.41	1055.66
2967.71	1062.89
2969.01	1069.12
2970.3	1062.46
2971.6	1081.05
2972.9	1072.42
2974.2	1058.6
2975.49	1063.66
2976.79	1074.66
2978.09	1076.59
2979.39	1097.51
2980.68	1074.54
2981.98	1076.28
2983.27	1078.11
2984.57	1084.53
2985.86	1095.4
2987.16	1093.95
2988.45	1116.36
2989.75	1097.19
2991.04	1089.95
2992.34	1084.55
2993.63	1107.4
2994.93	1118.19
2996.22	1095.42
2997.51	1107.16
2998.81	1108.84
3000.1	1113.63
3001.39	1094.29
3002.68	1108.67
3003.98	1107.89
3005.27	1100.36
3006.56	1122.35
3007.85	1111.84
3009.14	1107.33
3010.43	1109.52
3011.72	1140.27
3013.01	1112.93
3014.31	1144.53
3015.59	1137.26
3016.89	1110.44
3018.18	1130.15
3019.47	1132.82
3020.75	1120.31
3022.04	1106.96
3023.33	1131.22
3024.62	1127.06
3025.91	1126.15
3027.2	1118.07
3028.48	1128.86
3029.77	1117.76
3031.06	1135.91
3032.35	1149.28
3033.64	1155.76
3034.92	1149.61
3036.21	1156.05
3037.5	1145.26
3038.78	1140.91
3040.07	1144.41
3041.35	1140.66
3042.64	1172.9
3043.92	1194.21
3045.21	1188.32
3046.49	1178.18
3047.78	1165.43
3048.11	1162
3049.4	1200
3050.69	1210
3051.98	1158
3053.27	1192
3054.56	1162
3055.85	1170
3057.14	1190
3058.43	1164
3059.72	1172
3061.01	1184
3062.29	1166
3063.58	1188
3064.87	1220
3066.16	1196
3067.44	1204
3068.73	1192
3070.02	1176
3071.31	1226
3072.59	1200
3073.88	1178
3075.16	1186
3076.45	1210
3077.73	1208
3079.02	1214
3080.31	1194
3081.59	1222
3082.87	1188
3084.16	1186
3085.44	1228
3086.73	1226
3088.01	1218
3089.29	1226
3090.58	1212
3091.86	1218
3093.14	1226
3094.43	1238
3095.71	1248
3096.99	1202
3098.27	1248
3099.55	1236
3100.84	1222
3102.12	1252
3103.4	1252
3104.68	1256
3105.96	1216
3107.24	1224
3108.52	1252
3109.8	1250
3111.08	1254
3112.36	1280
3113.64	1234
3114.92	1280
3116.2	1302
3117.48	1248
3118.75	1254
3120.03	1250
3121.31	1292
3122.59	1258
3123.87	1274
3125.14	1274
3126.42	1284
3127.7	1288
3128.97	1286
3130.25	1296
3131.53	1286
3132.8	1264
3134.08	1306
3135.35	1356
3136.63	1296
3137.9	1294
3139.18	1298
3140.45	1324
3141.73	1288
3143	1344
3144.28	1260
3145.55	1322
3146.82	1356
3148.1	1316
3149.37	1334
3150.64	1298
3151.92	1286
3153.19	1346
3154.46	1334
3155.73	1330
3157.01	1338
3158.28	1352
3159.55	1274
3160.82	1328
3162.09	1398
3163.36	1336
3164.63	1320
3165.9	1372
3167.17	1358
3168.44	1360
3169.71	1358
3170.98	1348
3172.25	1348
3173.52	1368
3174.79	1370
3176.06	1358
3177.32	1352
3178.59	1374
3179.86	1370
3181.13	1350
3182.4	1358
3183.66	1384
3184.93	1412
3186.2	1378
3187.46	1392
3188.73	1352
3190	1368
3191.26	1430
3192.53	1382
3193.79	1390
3195.06	1382
3196.32	1386
3197.59	1322
3198.85	1382
3200.12	1338
3201.38	1404
3202.65	1352
3203.91	1412
3205.17	1390
3206.44	1386
3207.7	1376
3208.96	1396
3210.23	1418
3211.49	1382
3212.75	1364
3214.01	1420
3215.27	1404
3216.54	1376
3217.8	1356
3219.06	1424
3220.32	1402
3221.58	1384
3222.84	1370
3224.1	1412
3225.36	1410
3226.62	1428
3227.88	1432
3229.14	1408
3230.4	1404
3231.66	1414
3232.92	1434
3234.18	1414
3235.44	1434
3236.69	1400
3237.95	1390
3239.21	1396
3240.47	1428
3241.72	1382
3242.98	1458
3244.24	1446
3245.5	1442
3246.75	1436
3248.01	1452
3249.26	1426
3250.52	1436
3251.78	1454
3253.03	1410
3254.29	1450
3255.54	1486
3256.8	1428
3258.05	1494
3259.3	1458
3260.56	1452
3261.81	1436
3263.07	1476
3264.32	1468
3265.57	1486
3266.83	1462
3268.08	1450
3269.33	1494
3270.58	1472
3271.84	1468
3273.09	1468
3274.34	1494
3275.59	1470
3276.84	1496
3278.09	1546
3279.35	1464
3280.6	1490
3281.85	1534
3283.1	1478
3284.35	1510
3285.6	1516
3286.85	1516
3288.1	1514
3289.35	1540
3290.59	1504
3291.84	1542
3293.09	1520
3294.34	1530
3295.59	1570
3296.84	1558
3298.08	1508
3299.33	1558
3300.58	1572
3301.83	1532
3303.07	1532
3304.32	1552
3305.57	1600
3306.81	1564
3308.06	1572
3309.3	1564
3310.55	1612
3311.79	1576
3313.04	1552
3314.29	1584
3315.53	1558
3316.77	1594
3318.02	1608
3319.26	1610
3320.51	1554
3321.75	1572
3322.99	1602
3324.24	1632
3325.48	1588
3326.72	1628
3327.97	1608
3329.21	1614
3330.45	1624
3331.69	1590
3332.93	1582
3334.18	1596
3335.42	1622
3336.66	1614
3337.9	1602
3339.14	1616
3340.38	1640
3341.62	1654
3342.86	1666
3344.1	1660
3345.34	1640
3346.58	1650
3347.82	1640
3349.06	1612
3350.3	1606
3351.54	1608
3352.77	1642
3354.01	1660
3355.25	1628
3356.49	1620
3357.73	1618
3358.96	1638
3360.2	1666
3361.44	1652
3362.67	1638
3363.91	1638
3365.15	1624
3366.38	1656
3367.62	1630
3368.85	1674
3370.09	1680
3371.33	1640
3372.56	1666
3373.8	1638
3375.03	1626
3376.26	1668
3377.5	1656
3378.73	1652
3379.97	1702
3381.2	1692
3382.43	1690
3383.67	1602
3384.9	1642
3386.13	1660
3387.37	1634
3388.6	1672
3389.83	1690
3391.06	1666
3392.29	1636
3393.52	1728
3394.76	1670
3395.99	1680
3397.22	1692
3398.45	1688
3399.68	1696
3400.91	1708
3402.14	1664
3403.37	1714
3404.6	1708
3405.83	1718
3407.06	1696
3408.29	1704
3409.51	1732
3410.74	1708
3411.97	1704
3413.2	1730
3414.43	1744
3415.66	1708
3416.88	1726
3418.11	1738
3419.34	1750
3420.56	1730
3421.79	1810
3423.02	1740
3424.24	1768
3425.47	1782
3426.7	1774
3427.92	1706
3429.15	1772
3430.37	1800
3431.6	1748
3432.82	1782
3434.05	1766
3435.27	1766
3436.5	1822
3437.72	1790
3438.94	1786
3440.17	1784
3441.39	1808
3442.61	1828
3443.84	1804
3445.06	1830
3446.28	1828
3447.51	1812
3448.73	1842
3449.95	1850
3451.17	1830
3452.39	1820
3453.61	1842
3454.83	1804
3456.06	1834
3457.28	1902
3458.5	1866
3459.72	1806
3460.94	1860
3462.16	1868
3463.38	1880
3464.6	1870
3465.82	1866
3467.04	1834
3468.25	1868
3469.47	1860
3470.69	1856
3471.91	1808
3473.13	1898
3474.34	1830
3475.56	1908
3476.78	1870
3478	1902
3479.21	1888
3480.43	1942
3481.65	1922
3482.86	1894
3484.08	1880
3485.3	1892
3486.51	1908
3487.73	1890
3488.94	1922
3490.16	1938
3491.37	1884
3492.59	1906
3493.8	1882
3495.02	1908
3496.23	1890
3497.45	1908
3498.66	1944
3499.87	1880
3501.09	1918
3502.3	1918
3503.51	1886
3504.72	1910
3505.94	1906
3507.15	1922
3508.36	1940
3509.57	1878
3510.79	1876
3512	1884
3513.21	1926
3514.42	1938
3515.63	1918
3516.84	1920
3518.05	1908
3519.26	1874
3520.47	1944
3521.68	1896
3522.89	1912
3524.1	1884
3525.31	1894
3526.52	1902
3527.73	1930
3528.94	1892
3530.14	1938
3531.35	1920
3532.56	1898
3533.77	1930
3534.98	1936
3536.18	1906
3537.39	1928
3538.6	1908
3539.81	1916
3541.01	1886
3542.22	1942
3543.42	1876
3544.63	1982
3545.84	1938
3547.04	1922
3548.25	1976
3549.45	1922
3550.66	1998
3551.86	1954
3553.07	1948
3554.27	1938
3555.47	1980
3556.68	1978
3557.88	1962
3559.09	1964
3560.29	1938
3561.49	1972
3562.7	1970
3563.9	1996
3565.1	1944
3566.3	1950
3567.51	1996
3568.71	1988
3569.91	2004
3571.11	1954
3572.31	1964
3573.51	1972
3574.71	1972
3575.92	2002
3577.12	1974
3578.32	2052
3579.52	2026
3580.72	1978
3581.92	2024
3583.12	2050
3584.31	2036
3585.51	1988
3586.71	2072
3587.91	2028
3589.11	2046
3590.31	2072
3591.51	2104
3592.71	2064
3593.9	2058
3595.1	2080
3596.3	2108
3597.49	2104
3598.69	2050
3599.89	2082
3601.08	2062
3602.28	2076
3603.48	2156
3604.67	2082
3605.87	2042
3607.06	2124
3608.26	2134
3609.45	2142
3610.65	2142
3611.84	2116
3613.04	2124
3614.23	2168
3615.43	2116
3616.62	2086
3617.82	2144
3619.01	2138
3620.2	2050
3621.39	2146
3622.59	2166
3623.78	2114
3624.97	2102
3626.17	2144
3627.36	2164
3628.55	2128
3629.74	2094
3630.93	2146
3632.12	2138
3633.31	2180
3634.51	2124
3635.7	2146
3636.89	2120
3638.08	2092
3639.27	2170
3640.46	2150
3641.65	2116
3642.84	2192
3644.03	2166
3645.22	2192
3646.4	2168
3647.59	2156
3648.78	2144
3649.97	2140
3651.16	2128
3652.35	2152
3653.53	2168
3654.72	2166
3655.91	2204
3657.1	2156
3658.28	2160
3659.47	2140
3660.66	2184
3661.84	2166
3663.03	2192
3664.21	2158
3665.4	2194
3666.59	2172
3667.77	2152
3668.96	2174
3670.14	2172
3671.33	2162
3672.51	2142
3673.69	2132
3674.88	2160
3676.06	2166
3677.25	2160
3678.43	2226
3679.61	2170
3680.8	2152
3681.98	2166
3683.16	2208
3684.34	2204
3685.53	2192
3686.71	2136
3687.89	2178
3689.07	2190
3690.25	2148
3691.44	2180
3692.62	2158
3693.8	2116
3694.98	2202
3696.16	2178
3697.34	2180
3698.52	2144
3699.7	2180
3700.88	2216
3702.06	2254
3703.24	2234
3704.42	2256
3705.6	2230
3706.78	2234
3707.96	2222
3709.13	2210
3710.31	2220
3711.49	2196
3712.67	2238
3713.85	2262
3715.02	2234
3716.2	2256
3717.38	2272
3718.56	2236
3719.73	2206
3720.91	2254
3722.08	2280
3723.26	2234
3724.44	2264
3725.61	2302
3726.79	2270
3727.96	2260
3729.14	2266
3730.31	2286
3731.49	2316
3732.66	2286
3733.84	2308
3735.01	2328
3736.18	2310
3737.36	2266
3738.53	2316
3739.7	2210
3740.88	2302
3742.05	2326
3743.22	2320
3744.4	2360
3745.57	2374
3746.74	2370
3747.91	2320
3749.09	2338
3750.26	2322
3751.43	2326
3752.6	2330
3753.77	2368
3754.94	2338
3756.11	2342
3757.28	2418
3758.45	2360
3759.62	2406
3760.79	2380
3761.96	2348
3763.13	2394
3764.3	2384
3765.47	2368
3766.64	2378
3767.81	2336
3768.98	2406
3770.14	2362
3771.31	2404
3772.48	2400
3773.65	2386
3774.82	2358
3775.98	2416
3777.15	2384
3778.32	2438
3779.48	2442
3780.65	2422
3781.82	2374
3782.98	2430
3784.15	2422
3785.32	2392
3786.48	2410
3787.65	2400
3788.81	2330
3789.98	2402
3791.14	2466
3792.3	2376
3793.47	2422
3794.63	2424
3795.8	2378
3796.96	2372
3798.13	2372
3799.29	2428
3800.45	2424
3801.61	2416
3802.78	2466
3803.94	2422
3805.1	2418
3806.27	2416
3807.43	2486
3808.59	2441
3809.75	2386
3810.91	2392
3812.07	2460
3813.24	2400
3814.4	2420
3815.56	2382
3816.72	2368
3817.88	2398
3819.04	2396
3820.2	2446
3821.36	2440
3822.52	2426
3823.68	2412
3824.84	2418
3826	2402
3827.15	2408
3828.31	2366
3829.47	2406
3830.63	2384
3831.79	2404
3832.95	2480
3834.1	2402
3835.26	2380
3836.42	2440
3837.58	2470
3838.73	2404
3839.89	2432
3841.04	2438
3842.2	2430
3843.36	2444
3844.51	2430
3845.67	2482
3846.83	2424
3847.98	2436
3849.14	2426
3850.29	2420
3851.45	2398
3852.6	2458
3853.76	2424
3854.91	2448
3856.06	2414
3857.22	2430
3858.37	2476
3859.52	2446
3860.68	2434
3861.83	2458
3862.98	2504
3864.14	2462
3865.29	2412
3866.44	2478
3867.59	2464
3868.75	2462
3869.9	2440
3871.05	2512
3872.2	2488
3873.35	2480
3874.5	2532
3875.65	2516
3876.8	2524
3877.95	2484
3879.1	2500
3880.25	2558
3881.4	2540
3882.55	2510
3883.7	2482
3884.85	2564
3886	2536
3887.15	2592
3888.3	2590
3889.45	2482
3890.6	2524
3891.75	2560
3892.89	2556
3894.04	2572
3895.19	2548
3896.34	2578
3897.48	2630
3898.63	2592
3899.78	2652
3900.92	2620
3902.07	2630
3903.22	2592
3904.36	2568
3905.51	2540
3906.65	2604
3907.8	2642
3908.94	2658
3910.09	2632
3911.23	2582
3912.38	2648
3913.52	2622
3914.67	2600
3915.81	2640
3916.96	2592
3918.1	2646
3919.24	2610
3920.39	2582
3921.53	2652
3922.67	2660
3923.82	2620
3924.96	2596
3926.1	2652
3927.24	2634
3928.39	2616
3929.53	2624
3930.67	2672
3931.81	2648
3932.95	2674
3934.09	2660
3935.24	2650
3936.38	2672
3937.52	2660
3938.66	2606
3939.8	2616
3940.94	2640
3942.08	2622
3943.22	2652
3944.36	2652
3945.5	2648
3946.63	2678
3947.77	2620
3948.91	2626
3950.05	2716
3951.19	2654
3952.33	2702
3953.47	2668
3954.6	2654
3955.74	2648
3956.88	2708
3958.02	2620
3959.15	2684
3960.29	2686
3961.43	2728
3962.56	2604
3963.7	2660
3964.84	2650
3965.97	2660
3967.11	2666
3968.24	2646
3969.38	2682
3970.51	2640
3971.65	2698
3972.78	2630
3973.92	2664
3975.05	2648
3976.19	2662
3977.32	2644
3978.45	2706
3979.59	2658
3980.72	2674
3981.85	2646
3982.99	2626
3984.12	2678
3985.25	2662
3986.39	2676
3987.52	2690
3988.65	2706
3989.78	2682
3990.91	2662
3992.05	2664
3993.18	2686
3994.31	2676
3995.44	2680
3996.57	2666
3997.7	2710
3998.83	2708
3999.96	2646
