#Acq. time (s)=	20
#Accumulations=	2
#Range (cm-¹)=	50...4000
#Windows=	3
#Autofocus=	Off
#AutoExposure=	Off
#Spike filter=	Multiple accum.
#Delay time (s)=	0
#Binning=	1
#Readout mode=	Signal
#DeNoise=	Off
#ICS correction=	Off
#Dark correction=	Off
#Inst. Process=	Off
#Instrument=	LabRAM HR Evol
#Detector=	Syncerity OE
#Objective=	x100_VIS
#Grating=	600 (500nm)
#ND Filter=	100%
#Laser=	532nm_Edge
#Hole=	100.021
#Range=	Visible
#Project=	Omar
#Sample=	
#Site=	21-09-22
#Title=	 CN-Sastre
#Remark=	
#Date=	21.09.2022 14:00
#Acquired=	21.09.2022 14:00:18
51.0918	44
52.9354	50
54.7807	54
56.6235	62
58.4681	94
60.3102	132
62.154	184
63.9954	258
65.8385	308
67.6792	360
69.5216	464
71.3615	610
73.2032	806
75.0424	976
76.8834	1110
78.7218	1212
80.5621	1412
82.3998	1556
84.2393	1676
86.0764	1672
87.9152	1818
89.7515	1880
91.5874	1884
93.4251	1836
95.2603	1800
97.0973	1782
98.9318	1804
100.766	1800
102.602	1810
104.435	1890
106.27	1914
108.103	1874
109.936	1890
111.77	1914
113.601	1894
115.433	1934
117.266	1882
119.096	1862
120.926	1880
122.758	1828
124.588	1814
126.417	1842
128.246	1844
130.076	1814
131.904	1806
133.732	1790
135.561	1784
137.388	1818
139.215	1820
141.041	1838
142.869	1844
144.695	1836
146.52	1806
148.345	1832
150.171	1784
151.995	1806
153.819	1814
155.642	1832
157.465	1808
159.29	1810
161.112	1786
162.934	1812
164.756	1790
166.577	1790
168.398	1746
170.219	1730
172.041	1766
173.861	1718
175.68	1724
177.499	1732
179.318	1726
181.137	1708
182.955	1690
184.772	1728
186.592	1720
188.409	1722
190.225	1684
192.042	1718
193.857	1730
195.673	1678
197.488	1726
199.303	1698
201.118	1700
202.932	1732
204.746	1678
206.559	1662
208.372	1680
210.185	1690
211.997	1696
213.809	1628
215.621	1698
217.432	1616
219.243	1624
221.054	1612
222.864	1628
224.674	1642
226.483	1652
228.293	1622
230.101	1620
231.91	1644
233.718	1604
235.524	1624
237.331	1634
239.138	1608
240.945	1608
242.751	1638
244.557	1644
246.363	1610
248.168	1620
249.971	1660
251.776	1674
253.58	1630
255.384	1610
257.188	1628
258.991	1634
260.792	1628
262.594	1580
264.396	1608
266.198	1630
268	1650
269.799	1664
271.599	1606
273.4	1596
275.2	1630
277	1606
278.797	1592
280.596	1572
282.395	1612
284.193	1640
285.989	1622
287.786	1634
289.584	1622
291.378	1654
293.175	1616
294.971	1634
296.765	1656
298.561	1642
300.356	1644
302.148	1640
303.943	1622
305.737	1648
307.529	1646
309.322	1684
311.115	1658
312.906	1618
314.698	1664
316.49	1634
318.28	1688
320.071	1658
321.86	1696
323.651	1698
325.441	1682
327.229	1690
329.019	1686
330.806	1646
332.595	1700
334.381	1700
336.17	1672
337.955	1656
339.743	1662
341.528	1660
343.315	1688
345.099	1668
346.885	1698
348.669	1690
350.455	1708
352.238	1674
354.022	1682
355.805	1754
357.589	1694
359.371	1690
361.154	1680
362.935	1674
364.718	1668
366.498	1760
368.278	1684
370.06	1700
371.839	1682
373.62	1700
375.398	1726
377.177	1732
378.956	1694
380.734	1748
382.513	1694
384.29	1736
386.067	1720
387.845	1730
389.621	1704
391.396	1740
393.173	1690
394.948	1724
396.723	1718
398.499	1736
400.273	1766
402.046	1754
403.819	1724
405.594	1720
407.366	1754
409.138	1722
410.91	1762
412.683	1710
414.454	1728
416.225	1714
417.995	1744
419.768	1722
421.537	1730
423.307	1720
425.076	1730
426.844	1704
428.615	1702
430.382	1712
432.15	1728
433.917	1742
435.684	1748
437.451	1730
439.219	1746
440.985	1730
442.751	1736
444.516	1732
446.281	1794
448.045	1750
449.81	1732
451.574	1786
453.337	1712
455.102	1766
456.865	1752
458.628	1808
460.39	1754
462.152	1776
463.913	1750
465.674	1764
467.435	1768
469.196	1718
470.956	1730
472.716	1758
474.475	1720
476.234	1734
477.993	1732
479.752	1702
481.51	1746
483.268	1702
485.025	1704
486.782	1706
488.539	1690
490.295	1678
492.051	1706
493.807	1674
495.563	1672
497.316	1630
499.07	1688
500.825	1624
502.579	1660
504.333	1666
506.086	1696
507.839	1638
509.592	1630
511.344	1672
513.094	1686
514.846	1630
516.597	1652
518.349	1694
520.099	1662
521.85	1748
523.598	1736
525.347	1754
527.097	1820
528.846	1818
530.595	1848
532.341	1844
534.089	1942
535.837	1984
537.584	2026
539.329	2090
541.076	2112
542.822	2140
544.568	2152
546.312	2218
548.057	2222
549.802	2268
551.545	2260
553.289	2308
555.033	2276
556.775	2322
558.518	2378
560.261	2326
562.002	2264
563.744	2308
565.487	2300
567.226	2280
568.968	2208
570.709	2236
572.447	2178
574.188	2192
575.926	2162
577.665	2154
579.405	2114
581.142	2096
582.88	2078
584.617	2058
586.355	2040
588.091	2040
589.828	1996
591.565	1980
593.3	1936
595.036	1956
596.77	1924
598.506	1876
600.239	1888
601.974	1878
603.707	1766
605.442	1822
607.174	1786
608.905	1760
610.639	1796
612.37	1726
614.103	1710
615.833	1714
617.565	1660
619.295	1704
621.026	1686
622.755	1682
624.484	1644
626.215	1618
627.943	1608
629.67	1574
631.4	1534
633.127	1556
634.856	1532
636.582	1560
638.308	1536
640.036	1540
641.762	1550
643.487	1508
645.214	1502
646.938	1474
648.662	1424
650.386	1424
652.112	1340
653.835	1384
655.558	1396
657.282	1364
659.005	1362
660.726	1320
662.448	1288
664.171	1324
665.892	1296
667.613	1314
669.333	1294
671.053	1226
672.774	1236
674.494	1232
676.213	1164
677.931	1196
679.649	1202
681.369	1184
683.087	1136
684.804	1110
686.521	1080
688.238	1112
689.954	1072
691.67	1060
693.386	1076
695.103	1070
696.818	1028
698.533	1028
700.247	1044
701.961	1010
703.675	970
705.389	962
707.102	966
708.814	992
710.527	956
712.239	962
713.951	966
715.662	922
717.373	938
719.084	936
720.795	894
722.505	946
724.215	892
725.924	870
727.633	892
729.342	920
731.051	906
732.759	880
734.467	872
736.174	910
737.882	886
739.589	900
741.295	864
742.999	884
744.705	912
746.411	924
748.116	912
749.821	894
751.526	902
753.23	946
754.934	902
756.636	920
758.34	908
760.043	902
761.745	936
763.448	920
765.148	914
766.85	954
768.551	960
770.252	916
771.953	952
773.652	920
775.352	960
777.052	962
778.751	950
780.448	956
782.147	948
783.846	964
785.544	986
787.24	936
788.938	926
790.635	976
792.33	934
794.027	964
795.723	958
797.417	932
799.113	910
800.808	916
802.501	902
804.196	912
805.89	940
807.582	898
809.276	894
810.968	852
812.661	862
814.354	860
816.044	872
817.736	856
819.426	842
821.118	836
822.807	814
824.498	800
826.186	750
827.877	776
829.565	792
831.254	746
832.942	756
834.631	780
836.317	752
838.006	744
839.692	726
841.38	696
843.065	734
844.752	736
846.437	694
848.123	722
849.808	696
851.493	678
853.177	660
854.86	690
856.545	692
858.228	684
859.912	694
861.594	662
863.276	716
864.959	706
866.64	696
868.321	692
870.003	674
871.683	700
873.363	704
875.044	732
876.723	700
878.402	702
880.083	710
881.761	674
883.439	716
885.116	748
886.795	682
888.472	670
890.149	712
891.825	706
893.503	716
895.179	718
896.854	716
898.529	718
900.204	744
901.88	732
903.555	722
905.228	756
906.902	780
908.575	800
910.25	774
911.922	808
913.595	812
915.266	814
916.938	818
918.609	830
920.28	830
921.951	842
923.623	870
925.293	912
926.963	866
928.633	892
930.302	916
931.97	914
933.639	936
935.307	962
936.975	964
938.642	966
940.31	968
941.977	982
943.643	976
945.31	1004
946.976	1028
948.641	1010
950.307	986
951.972	1030
953.636	1020
955.301	1010
956.965	1020
958.629	1016
960.292	1058
961.955	1038
963.618	1028
965.279	970
966.941	1034
968.603	1042
970.265	1026
971.926	1006
973.587	998
975.248	1042
976.908	1036
978.566	1024
980.226	1006
981.886	1064
983.545	1058
985.204	1098
986.86	1120
988.519	1076
990.177	1112
991.834	1112
993.491	1102
995.147	1132
996.803	1084
998.46	1184
1000.12	1124
1001.77	1156
1003.43	1166
1005.08	1176
1006.73	1144
1008.39	1164
1010.04	1170
1011.7	1214
1013.35	1186
1015	1212
1016.65	1212
1018.3	1260
1019.96	1300
1021.61	1298
1023.26	1306
1024.91	1292
1026.56	1306
1028.21	1320
1029.86	1336
1031.51	1348
1033.16	1390
1034.81	1394
1036.46	1456
1038.1	1430
1039.75	1498
1041.4	1466
1043.05	1516
1044.69	1544
1046.34	1556
1047.99	1612
1049.63	1650
1051.28	1658
1052.92	1702
1054.57	1682
1056.21	1708
1057.86	1704
1059.5	1720
1061.14	1756
1062.79	1786
1064.43	1786
1066.07	1828
1067.72	1912
1069.36	1884
1071	1968
1072.64	1982
1074.28	1988
1075.92	2022
1077.57	2078
1079.2	2034
1080.84	2144
1082.48	2140
1084.12	2170
1085.76	2116
1087.4	2138
1089.04	2162
1090.68	2182
1092.32	2282
1093.95	2166
1095.59	2176
1097.22	2206
1098.86	2186
1100.5	2148
1102.13	2146
1103.77	2168
1105.4	2092
1107.04	2084
1108.67	2044
1110.31	2062
1111.94	1962
1113.58	1954
1115.21	1936
1116.84	1812
1118.47	1836
1120.1	1786
1121.74	1786
1123.37	1720
1125	1734
1126.63	1650
1128.26	1652
1129.89	1616
1131.52	1510
1133.15	1558
1134.78	1496
1136.41	1462
1138.04	1430
1139.67	1382
1141.3	1430
1142.92	1350
1144.55	1288
1146.18	1288
1147.8	1250
1149.43	1292
1151.06	1254
1152.68	1270
1154.31	1216
1155.93	1180
1157.56	1142
1159.18	1118
1160.81	1138
1162.43	1144
1164.06	1106
1165.68	1088
1167.3	1032
1168.93	1060
1170.55	996
1172.17	1032
1173.79	1026
1175.41	1010
1177.03	946
1178.66	958
1180.28	950
1181.9	950
1183.52	934
1185.14	884
1186.75	910
1188.37	866
1189.99	878
1191.61	882
1193.23	868
1194.85	852
1196.46	802
1198.08	800
1199.7	798
1201.31	806
1202.93	778
1204.55	764
1206.16	772
1207.78	790
1209.39	712
1211.01	720
1212.62	736
1214.24	736
1215.85	696
1217.46	674
1219.08	700
1220.69	698
1222.3	698
1223.91	686
1225.53	708
1227.14	680
1228.75	644
1230.36	674
1231.97	678
1233.58	664
1235.19	640
1236.8	656
1238.41	624
1240.02	640
1241.63	620
1243.23	654
1244.84	642
1246.45	638
1248.06	630
1249.67	626
1251.27	612
1252.88	634
1254.48	628
1256.09	626
1257.7	608
1259.3	622
1260.91	644
1262.51	646
1264.12	636
1265.72	620
1267.32	658
1268.93	638
1270.53	642
1272.13	646
1273.73	630
1275.34	658
1276.94	634
1278.54	608
1280.14	620
1281.74	624
1283.35	622
1284.94	642
1286.54	666
1288.15	668
1289.74	670
1291.34	656
1292.94	636
1294.54	654
1296.14	626
1297.74	632
1299.33	620
1300.93	646
1302.53	614
1304.12	650
1305.72	660
1307.32	624
1308.91	640
1310.51	628
1312.1	646
1313.7	646
1315.29	654
1316.89	648
1318.48	644
1320.07	634
1321.67	652
1323.26	644
1324.85	652
1326.45	654
1328.04	660
1329.63	650
1331.22	648
1332.81	658
1334.4	654
1335.99	654
1337.58	634
1339.17	668
1340.77	622
1342.35	666
1343.94	642
1345.53	650
1347.12	680
1348.71	640
1350.3	648
1351.88	652
1353.47	658
1355.06	696
1356.64	622
1358.23	642
1359.82	680
1361.4	644
1362.99	666
1364.57	630
1366.16	650
1367.74	658
1369.33	640
1370.91	632
1372.49	648
1374.08	662
1375.66	630
1377.24	638
1378.82	648
1380.41	674
1381.99	630
1383.57	644
1385.15	650
1386.73	654
1388.31	672
1389.89	636
1391.47	622
1393.05	638
1394.63	650
1396.21	612
1397.79	642
1399.37	624
1400.95	650
1402.52	644
1404.1	638
1405.68	654
1407.25	664
1408.83	624
1410.41	670
1411.98	662
1413.56	666
1415.13	626
1416.71	642
1418.29	662
1419.86	656
1421.43	660
1423.01	654
1424.58	638
1426.15	630
1427.73	638
1429.3	678
1430.87	630
1432.44	640
1434.02	622
1435.59	642
1437.16	648
1438.73	684
1440.3	662
1441.87	618
1443.44	638
1445.01	670
1446.58	674
1448.15	662
1449.72	634
1451.29	670
1452.85	660
1454.42	636
1455.99	674
1457.56	628
1459.12	626
1460.69	650
1462.26	638
1463.82	636
1465.39	642
1466.95	666
1468.52	654
1470.08	650
1471.65	666
1473.21	662
1474.78	632
1476.34	660
1477.9	656
1479.47	648
1481.03	676
1482.59	680
1484.16	646
1485.72	658
1487.28	658
1488.84	660
1490.4	680
1491.96	634
1493.52	676
1495.08	666
1496.64	690
1498.2	630
1499.76	662
1501.32	640
1502.88	652
1504.44	668
1506	652
1507.55	666
1509.11	668
1510.67	656
1512.22	672
1513.78	688
1515.34	682
1516.89	668
1518.45	656
1520.01	648
1521.56	668
1523.11	704
1524.67	676
1526.22	660
1527.78	676
1529.33	658
1530.88	658
1532.44	652
1533.99	688
1535.54	676
1537.09	654
1538.65	684
1540.2	678
1541.75	656
1543.3	656
1544.85	688
1546.4	684
1547.95	704
1549.5	688
1551.05	692
1552.6	686
1554.15	676
1555.7	714
1557.25	682
1558.79	686
1560.34	702
1561.89	678
1563.43	672
1564.98	698
1566.53	674
1568.08	690
1569.62	664
1571.17	688
1572.71	702
1574.26	662
1575.8	662
1577.35	692
1578.89	714
1580.43	686
1581.98	678
1583.52	696
1585.06	650
1586.61	690
1588.15	674
1589.69	724
1591.23	696
1592.77	668
1594.32	684
1595.86	700
1597.4	666
1598.94	658
1600.48	664
1602.02	690
1603.56	678
1605.1	684
1606.64	671.454
1608.18	666.064
1609.71	684.396
1611.25	658.456
1612.79	645.94
1614.33	671.089
1615.86	673.488
1617.4	687.329
1618.94	666.89
1620.47	656.41
1622.01	667.937
1623.55	651.042
1625.08	658.5
1626.62	659.437
1628.15	627.168
1629.69	632.621
1631.22	644.215
1632.75	631.301
1634.29	655.468
1635.82	640.96
1637.35	665.665
1638.89	654.959
1640.42	658.877
1641.95	629.176
1643.48	622.045
1645.02	642.69
1646.55	622.523
1648.08	662.247
1649.61	636.518
1651.14	642.349
1652.67	624.798
1654.2	654.227
1655.73	614.849
1657.26	640.584
1658.79	652.79
1660.32	629.662
1661.84	647.419
1663.37	631.819
1664.9	625.971
1666.43	619.813
1667.96	629.842
1669.48	637.264
1671.01	636.717
1672.54	619.893
1674.06	620.639
1675.59	641.53
1677.11	608.215
1678.64	633.574
1680.16	632.504
1681.69	619.282
1683.21	634.273
1684.74	616.035
1686.26	625.678
1687.79	620.997
1689.31	625.785
1690.83	619.417
1692.35	629.496
1693.88	619.717
1695.4	623.116
1696.92	620.568
1698.44	618.93
1699.96	609.118
1701.48	618.298
1703.01	610.659
1704.53	604.159
1706.05	631.341
1707.57	626.47
1709.09	616.747
1710.6	617.821
1712.12	597.832
1713.64	631.739
1715.16	613.581
1716.68	617.23
1718.2	603.255
1719.71	600.165
1721.23	599.515
1722.75	608.287
1724.27	605.54
1725.78	611.758
1727.3	608.724
1728.81	610.578
1730.33	596.555
1731.84	595.466
1733.36	607.622
1734.88	579.376
1736.39	576.643
1737.9	600.444
1739.42	609.456
1740.93	580.278
1742.44	570.208
1743.96	586.402
1745.47	601.626
1746.98	569.989
1748.49	570.809
1750.01	593.342
1751.52	573.379
1753.03	576.871
1754.54	567.564
1756.05	594.455
1757.56	556.428
1757.63	554
1759.14	576
1760.66	590
1762.18	586
1763.69	568
1765.21	582
1766.72	560
1768.24	570
1769.75	574
1771.27	592
1772.78	556
1774.3	590
1775.81	574
1777.32	576
1778.84	550
1780.35	580
1781.86	578
1783.38	542
1784.89	564
1786.4	572
1787.91	592
1789.42	568
1790.93	568
1792.44	576
1793.95	578
1795.47	602
1796.98	548
1798.48	616
1799.99	588
1801.5	582
1803.01	592
1804.52	564
1806.03	572
1807.54	598
1809.04	594
1810.55	574
1812.06	600
1813.57	572
1815.07	590
1816.58	588
1818.08	564
1819.59	584
1821.09	590
1822.6	606
1824.11	574
1825.61	578
1827.11	558
1828.62	572
1830.12	566
1831.63	588
1833.13	560
1834.63	558
1836.13	574
1837.64	580
1839.14	598
1840.64	592
1842.14	586
1843.64	572
1845.14	578
1846.64	594
1848.14	596
1849.64	600
1851.14	570
1852.64	584
1854.14	598
1855.64	580
1857.14	570
1858.64	584
1860.14	588
1861.64	582
1863.13	570
1864.63	598
1866.13	586
1867.63	606
1869.12	614
1870.62	574
1872.11	608
1873.61	588
1875.1	584
1876.6	582
1878.09	584
1879.59	590
1881.08	566
1882.58	604
1884.07	592
1885.56	592
1887.06	556
1888.55	600
1890.04	588
1891.54	534
1893.03	570
1894.52	564
1896.01	572
1897.5	600
1898.99	578
1900.48	594
1901.97	566
1903.46	574
1904.96	582
1906.44	608
1907.93	592
1909.42	582
1910.91	592
1912.4	602
1913.89	594
1915.38	580
1916.86	606
1918.35	606
1919.84	612
1921.32	570
1922.81	596
1924.3	584
1925.78	588
1927.27	594
1928.76	582
1930.24	590
1931.72	586
1933.21	582
1934.69	608
1936.18	588
1937.66	582
1939.15	572
1940.63	608
1942.11	578
1943.59	592
1945.08	594
1946.56	596
1948.04	590
1949.52	612
1951	604
1952.48	618
1953.97	588
1955.45	600
1956.93	574
1958.41	576
1959.89	604
1961.37	596
1962.85	590
1964.32	594
1965.8	604
1967.28	602
1968.76	562
1970.24	594
1971.71	590
1973.19	590
1974.67	586
1976.15	594
1977.62	602
1979.1	566
1980.57	588
1982.05	612
1983.53	608
1985	584
1986.48	586
1987.95	590
1989.42	606
1990.9	604
1992.37	594
1993.85	596
1995.32	590
1996.79	602
1998.26	618
1999.74	608
2001.21	594
2002.68	592
2004.15	606
2005.62	612
2007.09	594
2008.56	608
2010.03	610
2011.51	584
2012.98	580
2014.44	616
2015.92	602
2017.38	590
2018.85	612
2020.32	588
2021.79	592
2023.26	602
2024.73	590
2026.19	574
2027.66	614
2029.13	584
2030.59	572
2032.06	572
2033.53	606
2034.99	582
2036.46	592
2037.92	600
2039.39	606
2040.85	600
2042.32	590
2043.78	610
2045.25	592
2046.71	598
2048.17	616
2049.64	582
2051.1	604
2052.56	610
2054.02	592
2055.49	622
2056.95	594
2058.41	598
2059.87	560
2061.33	584
2062.79	582
2064.25	588
2065.71	624
2067.17	616
2068.63	616
2070.09	604
2071.55	600
2073.01	600
2074.47	644
2075.93	632
2077.39	618
2078.84	622
2080.3	610
2081.76	630
2083.22	612
2084.67	608
2086.13	618
2087.59	594
2089.04	604
2090.5	624
2091.95	616
2093.41	600
2094.86	594
2096.32	610
2097.77	612
2099.23	594
2100.68	608
2102.13	574
2103.59	602
2105.04	602
2106.49	578
2107.95	574
2109.4	624
2110.85	608
2112.3	620
2113.75	578
2115.21	622
2116.66	594
2118.11	614
2119.56	590
2121.01	566
2122.46	634
2123.91	598
2125.36	614
2126.8	610
2128.25	614
2129.7	614
2131.15	632
2132.6	602
2134.05	614
2135.49	586
2136.94	602
2138.39	586
2139.83	606
2141.28	638
2142.73	610
2144.17	598
2145.62	594
2147.06	620
2148.51	636
2149.95	598
2151.4	614
2152.84	620
2154.29	576
2155.73	622
2157.17	604
2158.62	592
2160.06	632
2161.5	582
2162.95	622
2164.39	598
2165.83	610
2167.27	610
2168.71	624
2170.15	592
2171.59	624
2173.04	598
2174.48	610
2175.92	592
2177.36	628
2178.79	630
2180.24	588
2181.67	608
2183.11	598
2184.55	624
2185.99	600
2187.43	612
2188.86	624
2190.3	616
2191.74	592
2193.18	610
2194.61	612
2196.05	592
2197.49	598
2198.92	606
2200.36	586
2201.79	614
2203.23	594
2204.66	612
2206.1	608
2207.53	582
2208.97	598
2210.4	634
2211.83	590
2213.27	604
2214.7	608
2216.13	622
2217.57	592
2219	592
2220.43	590
2221.86	614
2223.29	598
2224.72	598
2226.15	622
2227.59	594
2229.02	610
2230.45	574
2231.88	614
2233.31	600
2234.74	582
2236.16	578
2237.59	616
2239.02	588
2240.45	612
2241.88	566
2243.31	584
2244.73	616
2246.16	596
2247.59	572
2249.01	596
2250.44	590
2251.87	618
2253.29	626
2254.72	596
2256.15	594
2257.57	600
2259	608
2260.42	594
2261.84	578
2263.27	600
2264.69	566
2266.12	600
2267.54	578
2268.96	592
2270.39	592
2271.81	592
2273.23	602
2274.65	606
2276.07	618
2277.5	620
2278.92	648
2280.34	630
2281.76	606
2283.18	624
2284.6	598
2286.02	608
2287.44	620
2288.86	582
2290.28	592
2291.7	600
2293.12	598
2294.54	608
2295.95	606
2297.37	600
2298.79	646
2300.21	606
2301.62	616
2303.04	598
2304.46	654
2305.88	616
2307.29	624
2308.71	614
2310.12	624
2311.54	614
2312.95	632
2314.37	636
2315.78	640
2317.2	644
2318.61	648
2320.02	626
2321.44	658
2322.85	646
2324.27	650
2325.68	672
2327.09	696
2328.5	704
2329.92	688
2331.33	634
2332.74	668
2334.15	636
2335.56	674
2336.97	652
2338.38	650
2339.79	654
2341.2	686
2342.61	668
2344.02	690
2345.43	676
2346.84	688
2348.25	678
2349.66	666
2351.07	706
2352.48	696
2353.88	696
2355.29	660
2356.7	694
2358.11	700
2359.51	696
2360.92	696
2362.32	720
2363.73	724
2365.14	700
2366.54	704
2367.95	720
2369.35	732
2370.76	708
2372.16	736
2373.57	724
2374.97	708
2376.37	744
2377.78	724
2379.18	752
2380.58	740
2381.99	742
2383.39	726
2384.79	742
2386.19	732
2387.59	722
2389	722
2390.4	740
2391.8	752
2393.2	734
2394.6	776
2396	724
2397.4	730
2398.8	754
2400.2	792
2401.6	740
2403	740
2404.39	718
2405.79	752
2407.19	764
2408.59	778
2409.99	736
2411.38	754
2412.78	786
2414.18	754
2415.57	756
2416.97	754
2418.37	784
2419.76	762
2421.16	798
2422.55	778
2423.95	750
2425.34	740
2426.74	786
2428.13	798
2429.53	780
2430.92	768
2432.31	766
2433.71	772
2435.1	780
2436.49	776
2437.89	788
2439.28	766
2440.67	790
2442.06	798
2443.45	800
2444.85	754
2446.24	804
2447.63	806
2449.02	792
2450.41	790
2451.8	804
2453.19	786
2454.58	810
2455.97	774
2457.36	764
2458.75	770
2460.13	784
2461.52	772
2462.91	782
2464.3	780
2465.69	776
2467.07	772
2468.46	766
2469.85	774
2471.24	780
2472.62	742
2474.01	766
2475.39	806
2476.78	758
2478.16	766
2479.55	760
2480.94	796
2482.32	762
2483.7	760
2485.09	772
2486.47	800
2487.85	760
2489.24	788
2490.62	788
2492	754
2493.39	766
2494.77	764
2496.15	788
2497.53	782
2498.92	780
2500.3	798
2501.68	794
2503.06	776
2504.44	770
2505.82	768
2507.2	784
2508.58	774
2509.96	760
2511.34	774
2512.72	744
2514.1	772
2515.48	772
2516.85	762
2518.23	750
2519.61	790
2520.99	780
2522.37	774
2523.74	800
2525.12	780
2526.5	756
2527.87	776
2529.25	778
2530.63	756
2532	756
2533.38	768
2534.75	776
2536.13	786
2537.5	768
2538.88	798
2540.25	768
2541.62	788
2543	754
2544.37	778
2545.75	744
2547.12	774
2548.49	786
2549.86	800
2551.24	762
2552.61	784
2553.98	784
2555.35	786
2556.72	788
2558.09	776
2559.47	764
2560.84	782
2562.21	790
2563.57	776
2564.95	758
2566.32	760
2567.68	778
2569.05	746
2570.42	770
2571.79	782
2573.16	768
2574.53	786
2575.9	780
2577.26	796
2578.63	796
2580	770
2581.36	804
2582.73	788
2584.1	752
2585.46	774
2586.83	774
2588.19	788
2589.56	782
2590.93	790
2592.29	786
2593.66	772
2595.02	760
2596.39	806
2597.75	784
2599.11	778
2600.47	798
2601.84	802
2603.2	798
2604.56	786
2605.93	786
2607.29	812
2608.65	766
2610.01	812
2611.38	810
2612.74	804
2614.1	784
2615.46	804
2616.82	834
2618.18	800
2619.54	824
2620.9	816
2622.26	822
2623.62	806
2624.98	822
2626.34	776
2627.69	818
2629.05	812
2630.41	806
2631.77	822
2633.13	794
2634.48	820
2635.84	824
2637.2	790
2638.56	822
2639.91	806
2641.27	830
2642.62	844
2643.98	794
2645.33	858
2646.69	786
2648.05	804
2649.4	811
2650.75	814
2652.11	818
2653.46	836
2654.82	822
2656.17	814
2657.52	834
2658.88	830
2660.23	810
2661.58	816
2662.94	822
2664.29	844
2665.64	814
2666.99	824
2668.34	822
2669.69	804
2671.04	786
2672.39	812
2673.75	806
2675.09	828
2676.45	786
2677.79	832
2679.14	802
2680.49	810
2681.84	846
2683.19	844
2684.54	830
2685.89	796
2687.24	820
2688.58	794
2689.93	832
2691.28	798
2692.63	808
2693.97	826
2695.32	802
2696.67	804
2698.01	822
2699.36	818
2700.7	828
2702.05	820
2703.39	810
2704.74	798
2706.08	786
2707.43	830
2708.77	818
2710.12	830
2711.46	834
2712.8	820
2714.15	834
2715.49	828
2716.83	838
2718.17	856
2719.52	822
2720.86	814
2722.2	816
2723.54	856
2724.88	826
2726.22	828
2727.57	830
2728.91	800
2730.25	836
2731.59	832
2732.93	882
2734.27	840
2735.61	842
2736.95	818
2738.28	858
2739.62	828
2740.96	852
2742.3	832
2743.64	854
2744.98	832
2746.31	830
2747.65	838
2748.99	850
2750.33	832
2751.66	846
2753	850
2754.33	882
2755.67	856
2757.01	838
2758.34	864
2759.68	854
2761.01	856
2762.35	894
2763.68	872
2765.01	880
2766.35	844
2767.68	878
2769.02	850
2770.35	848
2771.68	874
2773.02	892
2774.35	844
2775.68	866
2777.01	874
2778.35	836
2779.68	868
2781.01	866
2782.34	892
2783.67	880
2785	896
2786.33	874
2787.66	864
2788.99	836
2790.32	900
2791.65	910
2792.98	902
2794.31	876
2795.64	902
2796.97	922
2798.3	924
2799.62	882
2800.95	892
2802.28	882
2803.61	894
2804.93	914
2806.26	920
2807.59	928
2808.91	922
2810.24	932
2811.57	894
2812.89	902
2814.22	894
2815.54	902
2816.87	922
2818.19	896
2819.52	910
2820.84	904
2822.17	896
2823.49	908
2824.81	902
2826.14	926
2827.46	876
2828.78	914
2830.11	930
2831.43	954
2832.75	922
2834.07	944
2835.39	894
2836.72	904
2838.04	940
2839.36	924
2840.68	968
2842	910
2843.32	928
2844.64	936
2845.96	972
2847.28	928
2848.6	906
2849.92	948
2851.24	922
2852.56	936
2853.88	954
2855.19	950
2856.51	932
2857.83	904
2859.15	966
2860.46	942
2861.78	966
2863.1	956
2864.42	958
2865.73	944
2867.05	956
2868.36	940
2869.68	964
2871	936
2872.31	964
2873.63	954
2874.94	938
2876.26	970
2877.57	924
2878.88	950
2880.2	1010
2881.51	964
2882.82	966
2884.14	970
2885.45	956
2886.76	994
2888.08	952
2889.39	968
2890.7	994
2892.01	976
2893.33	1008
2894.64	988
2895.95	966
2897.26	984
2898.57	1004
2899.88	986
2901.19	992
2902.5	1022
2903.81	980
2905.12	974
2906.43	1004
2907.74	970
2909.05	1012
2910.35	990
2911.66	988
2912.97	1002
2914.28	1006
2915.59	990
2916.89	984
2918.2	978.155
2919.51	1029.44
2920.82	1011.08
2922.12	982.653
2923.43	991.345
2924.73	994.789
2926.04	1020
2927.35	999.134
2928.65	1020.48
2929.96	1005.7
2931.26	1002.78
2932.57	1008.54
2933.87	1026.67
2935.17	1000.3
2936.48	1002.11
2937.78	1012.6
2939.09	1013.96
2940.39	977.582
2941.69	1049.23
2943	1033.95
2944.3	1031.61
2945.6	1011.39
2946.9	990.52
2948.2	1013.72
2949.51	1025.08
2950.81	1016.02
2952.11	1012.09
2953.41	1023.91
2954.71	1042.61
2956.01	1028.18
2957.31	1026.38
2958.61	1060.47
2959.91	1035.09
2961.21	1035.54
2962.51	1045.51
2963.81	1012.82
2965.11	1038.75
2966.41	1030.64
2967.71	1022.89
2969.01	1023.17
2970.3	1048.92
2971.6	1050.86
2972.9	1047.88
2974.2	1040.29
2975.49	1037.52
2976.79	1072.54
2978.09	1046.5
2979.39	1077.52
2980.68	1063.34
2981.98	1055.2
2983.27	1043
2984.57	1065.72
2985.86	1044.57
2987.16	1062.56
2988.45	1046.61
2989.75	1050.43
2991.04	1056.18
2992.34	1070.64
2993.63	1076.64
2994.93	1073.44
2996.22	1075.77
2997.51	1071.54
2998.81	1068.55
3000.1	1071.48
3001.39	1074.89
3002.68	1103.75
3003.98	1075.6
3005.27	1090.73
3006.56	1075.14
3007.85	1094.04
3009.14	1080.18
3010.43	1108.21
3011.72	1090.84
3013.01	1083.23
3014.31	1076.64
3015.59	1097.78
3016.89	1077.59
3018.18	1082.1
3019.47	1084.46
3020.75	1117.5
3022.04	1094.31
3023.33	1086.63
3024.62	1113.01
3025.91	1102.42
3027.2	1105.4
3028.48	1117.87
3029.77	1112.83
3031.06	1105.93
3032.35	1116.42
3033.64	1099.71
3034.92	1130.92
3036.21	1131.28
3037.5	1113.25
3038.78	1092.59
3040.07	1153.85
3041.35	1130.95
3042.64	1148.73
3043.92	1136.9
3045.21	1142.97
3046.49	1115.74
3047.78	1108.56
3048.11	1110
3049.4	1140
3050.69	1132
3051.98	1154
3053.27	1160
3054.56	1154
3055.85	1176
3057.14	1176
3058.43	1156
3059.72	1156
3061.01	1160
3062.29	1178
3063.58	1138
3064.87	1156
3066.16	1168
3067.44	1188
3068.73	1190
3070.02	1178
3071.31	1136
3072.59	1202
3073.88	1174
3075.16	1188
3076.45	1190
3077.73	1160
3079.02	1102
3080.31	1198
3081.59	1212
3082.87	1200
3084.16	1150
3085.44	1230
3086.73	1222
3088.01	1220
3089.29	1176
3090.58	1192
3091.86	1200
3093.14	1220
3094.43	1218
3095.71	1214
3096.99	1220
3098.27	1214
3099.55	1194
3100.84	1200
3102.12	1184
3103.4	1202
3104.68	1244
3105.96	1224
3107.24	1196
3108.52	1212
3109.8	1220
3111.08	1228
3112.36	1242
3113.64	1256
3114.92	1236
3116.2	1240
3117.48	1248
3118.75	1242
3120.03	1186
3121.31	1244
3122.59	1234
3123.87	1230
3125.14	1258
3126.42	1262
3127.7	1290
3128.97	1264
3130.25	1242
3131.53	1256
3132.8	1228
3134.08	1248
3135.35	1304
3136.63	1262
3137.9	1276
3139.18	1276
3140.45	1266
3141.73	1286
3143	1288
3144.28	1250
3145.55	1274
3146.82	1270
3148.1	1292
3149.37	1298
3150.64	1304
3151.92	1286
3153.19	1266
3154.46	1304
3155.73	1276
3157.01	1300
3158.28	1312
3159.55	1312
3160.82	1318
3162.09	1330
3163.36	1322
3164.63	1332
3165.9	1340
3167.17	1314
3168.44	1314
3169.71	1350
3170.98	1316
3172.25	1346
3173.52	1356
3174.79	1338
3176.06	1368
3177.32	1322
3178.59	1324
3179.86	1360
3181.13	1348
3182.4	1354
3183.66	1334
3184.93	1382
3186.2	1316
3187.46	1342
3188.73	1344
3190	1334
3191.26	1386
3192.53	1352
3193.79	1340
3195.06	1340
3196.32	1362
3197.59	1366
3198.85	1340
3200.12	1350
3201.38	1356
3202.65	1344
3203.91	1370
3205.17	1382
3206.44	1348
3207.7	1386
3208.96	1366
3210.23	1352
3211.49	1368
3212.75	1348
3214.01	1370
3215.27	1356
3216.54	1368
3217.8	1368
3219.06	1422
3220.32	1416
3221.58	1402
3222.84	1344
3224.1	1354
3225.36	1406
3226.62	1410
3227.88	1352
3229.14	1370
3230.4	1376
3231.66	1428
3232.92	1378
3234.18	1412
3235.44	1408
3236.69	1362
3237.95	1408
3239.21	1464
3240.47	1452
3241.72	1396
3242.98	1434
3244.24	1406
3245.5	1440
3246.75	1426
3248.01	1460
3249.26	1396
3250.52	1446
3251.78	1408
3253.03	1414
3254.29	1428
3255.54	1416
3256.8	1422
3258.05	1432
3259.3	1468
3260.56	1458
3261.81	1430
3263.07	1440
3264.32	1436
3265.57	1426
3266.83	1460
3268.08	1450
3269.33	1456
3270.58	1472
3271.84	1468
3273.09	1472
3274.34	1468
3275.59	1470
3276.84	1478
3278.09	1476
3279.35	1508
3280.6	1466
3281.85	1492
3283.1	1504
3284.35	1504
3285.6	1522
3286.85	1486
3288.1	1526
3289.35	1528
3290.59	1514
3291.84	1506
3293.09	1534
3294.34	1504
3295.59	1520
3296.84	1538
3298.08	1516
3299.33	1526
3300.58	1508
3301.83	1542
3303.07	1530
3304.32	1554
3305.57	1552
3306.81	1540
3308.06	1548
3309.3	1538
3310.55	1558
3311.79	1508
3313.04	1574
3314.29	1568
3315.53	1552
3316.77	1594
3318.02	1580
3319.26	1536
3320.51	1592
3321.75	1548
3322.99	1568
3324.24	1568
3325.48	1590
3326.72	1606
3327.97	1548
3329.21	1622
3330.45	1590
3331.69	1554
3332.93	1562
3334.18	1576
3335.42	1612
3336.66	1574
3337.9	1578
3339.14	1568
3340.38	1616
3341.62	1612
3342.86	1630
3344.1	1616
3345.34	1602
3346.58	1632
3347.82	1640
3349.06	1622
3350.3	1586
3351.54	1640
3352.77	1560
3354.01	1616
3355.25	1572
3356.49	1604
3357.73	1628
3358.96	1602
3360.2	1646
3361.44	1652
3362.67	1606
3363.91	1646
3365.15	1586
3366.38	1634
3367.62	1594
3368.85	1654
3370.09	1622
3371.33	1618
3372.56	1602
3373.8	1644
3375.03	1638
3376.26	1612
3377.5	1646
3378.73	1678
3379.97	1656
3381.2	1628
3382.43	1624
3383.67	1664
3384.9	1666
3386.13	1642
3387.37	1638
3388.6	1696
3389.83	1650
3391.06	1666
3392.29	1668
3393.52	1652
3394.76	1606
3395.99	1668
3397.22	1668
3398.45	1662
3399.68	1634
3400.91	1626
3402.14	1734
3403.37	1670
3404.6	1678
3405.83	1716
3407.06	1726
3408.29	1700
3409.51	1702
3410.74	1738
3411.97	1722
3413.2	1750
3414.43	1750
3415.66	1716
3416.88	1734
3418.11	1718
3419.34	1742
3420.56	1734
3421.79	1706
3423.02	1710
3424.24	1750
3425.47	1726
3426.7	1736
3427.92	1754
3429.15	1766
3430.37	1808
3431.6	1752
3432.82	1744
3434.05	1748
3435.27	1736
3436.5	1766
3437.72	1794
3438.94	1816
3440.17	1790
3441.39	1754
3442.61	1810
3443.84	1776
3445.06	1786
3446.28	1844
3447.51	1760
3448.73	1826
3449.95	1744
3451.17	1830
3452.39	1808
3453.61	1834
3454.83	1814
3456.06	1848
3457.28	1798
3458.5	1836
3459.72	1822
3460.94	1840
3462.16	1822
3463.38	1850
3464.6	1814
3465.82	1828
3467.04	1822
3468.25	1880
3469.47	1846
3470.69	1824
3471.91	1872
3473.13	1878
3474.34	1856
3475.56	1874
3476.78	1842
3478	1884
3479.21	1868
3480.43	1810
3481.65	1862
3482.86	1868
3484.08	1842
3485.3	1886
3486.51	1842
3487.73	1860
3488.94	1878
3490.16	1846
3491.37	1930
3492.59	1898
3493.8	1848
3495.02	1922
3496.23	1844
3497.45	1868
3498.66	1902
3499.87	1868
3501.09	1906
3502.3	1900
3503.51	1892
3504.72	1840
3505.94	1870
3507.15	1870
3508.36	1856
3509.57	1892
3510.79	1894
3512	1906
3513.21	1898
3514.42	1902
3515.63	1894
3516.84	1892
3518.05	1898
3519.26	1922
3520.47	1888
3521.68	1902
3522.89	1866
3524.1	1856
3525.31	1888
3526.52	1894
3527.73	1876
3528.94	1902
3530.14	1902
3531.35	1902
3532.56	1916
3533.77	1908
3534.98	1866
3536.18	1894
3537.39	1906
3538.6	1892
3539.81	1876
3541.01	1918
3542.22	1912
3543.42	1958
3544.63	1896
3545.84	1912
3547.04	1904
3548.25	1956
3549.45	1906
3550.66	1924
3551.86	1964
3553.07	1970
3554.27	1930
3555.47	1904
3556.68	1944
3557.88	1952
3559.09	1898
3560.29	1968
3561.49	1964
3562.7	1916
3563.9	1898
3565.1	1934
3566.3	1966
3567.51	1998
3568.71	1912
3569.91	2004
3571.11	1974
3572.31	1988
3573.51	1928
3574.71	1986
3575.92	1978
3577.12	1982
3578.32	1992
3579.52	1984
3580.72	2002
3581.92	2016
3583.12	2040
3584.31	2004
3585.51	2014
3586.71	2040
3587.91	2026
3589.11	2030
3590.31	2044
3591.51	2058
3592.71	2068
3593.9	2002
3595.1	2018
3596.3	2034
3597.49	2022
3598.69	2046
3599.89	2048
3601.08	2068
3602.28	2130
3603.48	2090
3604.67	2104
3605.87	2064
3607.06	2106
3608.26	2074
3609.45	2108
3610.65	2096
3611.84	2090
3613.04	2086
3614.23	2090
3615.43	2068
3616.62	2092
3617.82	2134
3619.01	2090
3620.2	2094
3621.39	2176
3622.59	2124
3623.78	2128
3624.97	2178
3626.17	2110
3627.36	2106
3628.55	2086
3629.74	2116
3630.93	2118
3632.12	2086
3633.31	2166
3634.51	2114
3635.7	2152
3636.89	2106
3638.08	2144
3639.27	2122
3640.46	2108
3641.65	2100
3642.84	2146
3644.03	2184
3645.22	2112
3646.4	2162
3647.59	2126
3648.78	2164
3649.97	2146
3651.16	2080
3652.35	2108
3653.53	2148
3654.72	2140
3655.91	2160
3657.1	2182
3658.28	2166
3659.47	2158
3660.66	2166
3661.84	2126
3663.03	2114
3664.21	2148
3665.4	2126
3666.59	2158
3667.77	2164
3668.96	2148
3670.14	2140
3671.33	2148
3672.51	2156
3673.69	2120
3674.88	2116
3676.06	2164
3677.25	2166
3678.43	2160
3679.61	2170
3680.8	2148
3681.98	2172
3683.16	2122
3684.34	2158
3685.53	2142
3686.71	2182
3687.89	2146
3689.07	2174
3690.25	2186
3691.44	2168
3692.62	2180
3693.8	2162
3694.98	2174
3696.16	2184
3697.34	2164
3698.52	2186
3699.7	2176
3700.88	2180
3702.06	2224
3703.24	2174
3704.42	2128
3705.6	2154
3706.78	2182
3707.96	2240
3709.13	2228
3710.31	2232
3711.49	2202
3712.67	2198
3713.85	2204
3715.02	2246
3716.2	2226
3717.38	2208
3718.56	2232
3719.73	2178
3720.91	2240
3722.08	2284
3723.26	2204
3724.44	2236
3725.61	2272
3726.79	2268
3727.96	2290
3729.14	2256
3730.31	2294
3731.49	2280
3732.66	2312
3733.84	2302
3735.01	2272
3736.18	2296
3737.36	2264
3738.53	2264
3739.7	2286
3740.88	2324
3742.05	2294
3743.22	2338
3744.4	2312
3745.57	2346
3746.74	2328
3747.91	2310
3749.09	2358
3750.26	2306
3751.43	2384
3752.6	2358
3753.77	2358
3754.94	2386
3756.11	2348
3757.28	2358
3758.45	2348
3759.62	2298
3760.79	2350
3761.96	2336
3763.13	2376
3764.3	2410
3765.47	2352
3766.64	2400
3767.81	2388
3768.98	2362
3770.14	2362
3771.31	2340
3772.48	2416
3773.65	2406
3774.82	2372
3775.98	2386
3777.15	2398
3778.32	2376
3779.48	2362
3780.65	2396
3781.82	2374
3782.98	2410
3784.15	2440
3785.32	2422
3786.48	2420
3787.65	2378
3788.81	2364
3789.98	2440
3791.14	2384
3792.3	2398
3793.47	2378
3794.63	2392
3795.8	2398
3796.96	2384
3798.13	2358
3799.29	2404
3800.45	2368
3801.61	2416
3802.78	2392
3803.94	2372
3805.1	2394
3806.27	2388
3807.43	2404
3808.59	2399
3809.75	2394
3810.91	2382
3812.07	2412
3813.24	2396
3814.4	2426
3815.56	2386
3816.72	2404
3817.88	2396
3819.04	2356
3820.2	2382
3821.36	2402
3822.52	2396
3823.68	2412
3824.84	2332
3826	2338
3827.15	2418
3828.31	2392
3829.47	2400
3830.63	2404
3831.79	2434
3832.95	2394
3834.1	2378
3835.26	2386
3836.42	2366
3837.58	2434
3838.73	2386
3839.89	2392
3841.04	2444
3842.2	2434
3843.36	2402
3844.51	2426
3845.67	2408
3846.83	2392
3847.98	2414
3849.14	2420
3850.29	2372
3851.45	2428
3852.6	2394
3853.76	2420
3854.91	2430
3856.06	2408
3857.22	2428
3858.37	2384
3859.52	2468
3860.68	2404
3861.83	2466
3862.98	2446
3864.14	2410
3865.29	2458
3866.44	2444
3867.59	2502
3868.75	2418
3869.9	2468
3871.05	2498
3872.2	2446
3873.35	2456
3874.5	2540
3875.65	2516
3876.8	2514
3877.95	2462
3879.1	2522
3880.25	2502
3881.4	2472
3882.55	2510
3883.7	2504
3884.85	2576
3886	2526
3887.15	2574
3888.3	2550
3889.45	2510
3890.6	2550
3891.75	2538
3892.89	2632
3894.04	2544
3895.19	2578
3896.34	2542
3897.48	2582
3898.63	2612
3899.78	2586
3900.92	2532
3902.07	2554
3903.22	2590
3904.36	2604
3905.51	2552
3906.65	2530
3907.8	2596
3908.94	2630
3910.09	2658
3911.23	2598
3912.38	2552
3913.52	2572
3914.67	2576
3915.81	2616
3916.96	2614
3918.1	2642
3919.24	2632
3920.39	2618
3921.53	2650
3922.67	2612
3923.82	2644
3924.96	2620
3926.1	2634
3927.24	2594
3928.39	2648
3929.53	2612
3930.67	2630
3931.81	2602
3932.95	2642
3934.09	2668
3935.24	2656
3936.38	2550
3937.52	2618
3938.66	2678
3939.8	2632
3940.94	2618
3942.08	2600
3943.22	2644
3944.36	2634
3945.5	2646
3946.63	2610
3947.77	2612
3948.91	2650
3950.05	2602
3951.19	2666
3952.33	2638
3953.47	2654
3954.6	2660
3955.74	2618
3956.88	2622
3958.02	2652
3959.15	2664
3960.29	2592
3961.43	2652
3962.56	2644
3963.7	2612
3964.84	2668
3965.97	2638
3967.11	2630
3968.24	2656
3969.38	2638
3970.51	2660
3971.65	2690
3972.78	2674
3973.92	2636
3975.05	2674
3976.19	2662
3977.32	2672
3978.45	2650
3979.59	2632
3980.72	2668
3981.85	2662
3982.99	2654
3984.12	2674
3985.25	2640
3986.39	2676
3987.52	2600
3988.65	2666
3989.78	2652
3990.91	2608
3992.05	2636
3993.18	2704
3994.31	2676
3995.44	2646
3996.57	2652
3997.7	2696
3998.83	2682
3999.96	2694
