#Acq. time (s)=	20
#Accumulations=	2
#Range (cm-¹)=	50...4000
#Windows=	3
#Autofocus=	Off
#AutoExposure=	Off
#Spike filter=	Multiple accum.
#Delay time (s)=	0
#Binning=	1
#Readout mode=	Signal
#DeNoise=	Off
#ICS correction=	Off
#Dark correction=	Off
#Inst. Process=	Off
#Instrument=	LabRAM HR Evol
#Detector=	Syncerity OE
#Objective=	x100_VIS
#Grating=	600 (500nm)
#ND Filter=	100%
#Laser=	532nm_Edge
#Hole=	100.021
#Range=	Visible
#Project=	Omar
#Sample=	
#Site=	21-09-22
#Title=	 CN-Sastre
#Remark=	
#Date=	21.09.2022 13:55
#Acquired=	21.09.2022 13:55:11
51.0918	38
52.9354	34
54.7807	48
56.6235	58
58.4681	80
60.3102	128
62.154	180
63.9954	214
65.8385	308
67.6792	358
69.5216	462
71.3615	620
73.2032	780
75.0424	952
76.8834	1048
78.7218	1126
80.5621	1304
82.3998	1488
84.2393	1528
86.0764	1584
87.9152	1686
89.7515	1822
91.5874	1770
93.4251	1744
95.2603	1736
97.0973	1722
98.9318	1732
100.766	1688
102.602	1752
104.435	1812
106.27	1792
108.103	1792
109.936	1760
111.77	1770
113.601	1798
115.433	1788
117.266	1814
119.096	1816
120.926	1802
122.758	1780
124.588	1814
126.417	1734
128.246	1744
130.076	1716
131.904	1706
133.732	1688
135.561	1700
137.388	1740
139.215	1748
141.041	1748
142.869	1728
144.695	1700
146.52	1698
148.345	1730
150.171	1736
151.995	1744
153.819	1664
155.642	1670
157.465	1714
159.29	1708
161.112	1686
162.934	1660
164.756	1692
166.577	1628
168.398	1632
170.219	1672
172.041	1688
173.861	1598
175.68	1698
177.499	1620
179.318	1612
181.137	1604
182.955	1616
184.772	1624
186.592	1648
188.409	1624
190.225	1606
192.042	1610
193.857	1594
195.673	1644
197.488	1604
199.303	1602
201.118	1606
202.932	1608
204.746	1606
206.559	1542
208.372	1580
210.185	1612
211.997	1560
213.809	1584
215.621	1564
217.432	1546
219.243	1568
221.054	1554
222.864	1572
224.674	1536
226.483	1578
228.293	1540
230.101	1526
231.91	1504
233.718	1570
235.524	1510
237.331	1522
239.138	1562
240.945	1516
242.751	1576
244.557	1554
246.363	1532
248.168	1570
249.971	1554
251.776	1538
253.58	1508
255.384	1580
257.188	1572
258.991	1568
260.792	1510
262.594	1554
264.396	1556
266.198	1532
268	1534
269.799	1544
271.599	1550
273.4	1558
275.2	1534
277	1560
278.797	1530
280.596	1560
282.395	1516
284.193	1524
285.989	1546
287.786	1550
289.584	1564
291.378	1570
293.175	1534
294.971	1536
296.765	1536
298.561	1538
300.356	1574
302.148	1564
303.943	1554
305.737	1550
307.529	1552
309.322	1574
311.115	1572
312.906	1570
314.698	1630
316.49	1624
318.28	1648
320.071	1594
321.86	1628
323.651	1624
325.441	1634
327.229	1616
329.019	1636
330.806	1588
332.595	1638
334.381	1612
336.17	1648
337.955	1606
339.743	1594
341.528	1584
343.315	1576
345.099	1594
346.885	1592
348.669	1616
350.455	1548
352.238	1558
354.022	1616
355.805	1610
357.589	1630
359.371	1630
361.154	1630
362.935	1620
364.718	1622
366.498	1640
368.278	1628
370.06	1590
371.839	1618
373.62	1638
375.398	1668
377.177	1642
378.956	1648
380.734	1648
382.513	1650
384.29	1662
386.067	1670
387.845	1672
389.621	1676
391.396	1680
393.173	1688
394.948	1648
396.723	1646
398.499	1642
400.273	1666
402.046	1660
403.819	1642
405.594	1650
407.366	1624
409.138	1630
410.91	1634
412.683	1602
414.454	1632
416.225	1656
417.995	1676
419.768	1652
421.537	1628
423.307	1604
425.076	1622
426.844	1630
428.615	1638
430.382	1622
432.15	1610
433.917	1634
435.684	1628
437.451	1642
439.219	1620
440.985	1662
442.751	1642
444.516	1664
446.281	1668
448.045	1692
449.81	1638
451.574	1682
453.337	1686
455.102	1698
456.865	1624
458.628	1658
460.39	1668
462.152	1656
463.913	1674
465.674	1682
467.435	1692
469.196	1620
470.956	1644
472.716	1656
474.475	1638
476.234	1636
477.993	1648
479.752	1656
481.51	1630
483.268	1664
485.025	1636
486.782	1632
488.539	1610
490.295	1604
492.051	1590
493.807	1562
495.563	1614
497.316	1590
499.07	1592
500.825	1562
502.579	1548
504.333	1602
506.086	1552
507.839	1592
509.592	1590
511.344	1546
513.094	1594
514.846	1584
516.597	1622
518.349	1608
520.099	1658
521.85	1650
523.598	1610
525.347	1686
527.097	1732
528.846	1708
530.595	1762
532.341	1804
534.089	1802
535.837	1860
537.584	1938
539.329	1954
541.076	2004
542.822	2068
544.568	2084
546.312	2118
548.057	2088
549.802	2126
551.545	2172
553.289	2218
555.033	2200
556.775	2176
558.518	2226
560.261	2212
562.002	2218
563.744	2202
565.487	2154
567.226	2154
568.968	2148
570.709	2194
572.447	2106
574.188	2112
575.926	2072
577.665	2064
579.405	1994
581.142	2020
582.88	2016
584.617	1940
586.355	1944
588.091	1938
589.828	1914
591.565	1906
593.3	1868
595.036	1850
596.77	1816
598.506	1806
600.239	1780
601.974	1752
603.707	1782
605.442	1726
607.174	1726
608.905	1682
610.639	1670
612.37	1684
614.103	1690
615.833	1678
617.565	1614
619.295	1596
621.026	1600
622.755	1578
624.484	1530
626.215	1558
627.943	1566
629.67	1536
631.4	1522
633.127	1544
634.856	1464
636.582	1486
638.308	1466
640.036	1464
641.762	1448
643.487	1420
645.214	1394
646.938	1436
648.662	1340
650.386	1366
652.112	1358
653.835	1332
655.558	1278
657.282	1294
659.005	1344
660.726	1288
662.448	1252
664.171	1232
665.892	1232
667.613	1222
669.333	1210
671.053	1180
672.774	1208
674.494	1182
676.213	1142
677.931	1128
679.649	1136
681.369	1086
683.087	1124
684.804	1094
686.521	1094
688.238	1072
689.954	1082
691.67	1050
693.386	1024
695.103	990
696.818	1016
698.533	1020
700.247	944
701.961	996
703.675	988
705.389	954
707.102	968
708.814	946
710.527	948
712.239	880
713.951	914
715.662	956
717.373	930
719.084	898
720.795	930
722.505	884
724.215	916
725.924	908
727.633	872
729.342	896
731.051	858
732.759	860
734.467	850
736.174	868
737.882	856
739.589	888
741.295	864
742.999	852
744.705	854
746.411	868
748.116	860
749.821	878
751.526	850
753.23	884
754.934	902
756.636	888
758.34	898
760.043	904
761.745	896
763.448	898
765.148	924
766.85	912
768.551	870
770.252	926
771.953	912
773.652	954
775.352	946
777.052	916
778.751	898
780.448	916
782.147	934
783.846	946
785.544	914
787.24	934
788.938	940
790.635	896
792.33	880
794.027	900
795.723	892
797.417	910
799.113	904
800.808	884
802.501	908
804.196	908
805.89	890
807.582	870
809.276	890
810.968	850
812.661	858
814.354	828
816.044	810
817.736	834
819.426	806
821.118	806
822.807	788
824.498	766
826.186	770
827.877	754
829.565	708
831.254	740
832.942	738
834.631	720
836.317	760
838.006	732
839.692	712
841.38	698
843.065	710
844.752	706
846.437	716
848.123	710
849.808	700
851.493	698
853.177	684
854.86	678
856.545	700
858.228	670
859.912	684
861.594	680
863.276	704
864.959	688
866.64	684
868.321	700
870.003	674
871.683	692
873.363	720
875.044	692
876.723	692
878.402	688
880.083	702
881.761	666
883.439	704
885.116	682
886.795	692
888.472	710
890.149	708
891.825	688
893.503	712
895.179	706
896.854	738
898.529	752
900.204	718
901.88	730
903.555	718
905.228	744
906.902	714
908.575	774
910.25	762
911.922	788
913.595	812
915.266	808
916.938	796
918.609	828
920.28	812
921.951	838
923.623	848
925.293	890
926.963	850
928.633	904
930.302	914
931.97	908
933.639	906
935.307	936
936.975	926
938.642	948
940.31	956
941.977	898
943.643	968
945.31	1006
946.976	994
948.641	1022
950.307	956
951.972	980
953.636	996
955.301	1004
956.965	986
958.629	1018
960.292	1002
961.955	982
963.618	984
965.279	972
966.941	992
968.603	1020
970.265	968
971.926	994
973.587	980
975.248	982
976.908	1042
978.566	1036
980.226	1036
981.886	1056
983.545	1078
985.204	1062
986.86	1060
988.519	1062
990.177	1076
991.834	1074
993.491	1068
995.147	1110
996.803	1094
998.46	1090
1000.12	1094
1001.77	1142
1003.43	1100
1005.08	1144
1006.73	1110
1008.39	1178
1010.04	1162
1011.7	1156
1013.35	1160
1015	1198
1016.65	1212
1018.3	1228
1019.96	1244
1021.61	1264
1023.26	1228
1024.91	1294
1026.56	1268
1028.21	1310
1029.86	1338
1031.51	1322
1033.16	1412
1034.81	1396
1036.46	1420
1038.1	1404
1039.75	1436
1041.4	1444
1043.05	1486
1044.69	1482
1046.34	1526
1047.99	1556
1049.63	1516
1051.28	1546
1052.92	1618
1054.57	1608
1056.21	1674
1057.86	1636
1059.5	1668
1061.14	1694
1062.79	1740
1064.43	1740
1066.07	1774
1067.72	1806
1069.36	1866
1071	1814
1072.64	1914
1074.28	1954
1075.92	1956
1077.57	1980
1079.2	1972
1080.84	2026
1082.48	2052
1084.12	2056
1085.76	2100
1087.4	2122
1089.04	2122
1090.68	2138
1092.32	2098
1093.95	2134
1095.59	2104
1097.22	2114
1098.86	2110
1100.5	2116
1102.13	2070
1103.77	2036
1105.4	2020
1107.04	2004
1108.67	2020
1110.31	1898
1111.94	1904
1113.58	1850
1115.21	1792
1116.84	1814
1118.47	1768
1120.1	1734
1121.74	1708
1123.37	1672
1125	1656
1126.63	1564
1128.26	1572
1129.89	1544
1131.52	1506
1133.15	1488
1134.78	1492
1136.41	1372
1138.04	1410
1139.67	1346
1141.3	1368
1142.92	1278
1144.55	1310
1146.18	1286
1147.8	1274
1149.43	1254
1151.06	1232
1152.68	1202
1154.31	1164
1155.93	1174
1157.56	1150
1159.18	1112
1160.81	1108
1162.43	1122
1164.06	1088
1165.68	1050
1167.3	1042
1168.93	1032
1170.55	998
1172.17	1010
1173.79	986
1175.41	966
1177.03	968
1178.66	968
1180.28	948
1181.9	906
1183.52	904
1185.14	926
1186.75	888
1188.37	878
1189.99	876
1191.61	858
1193.23	796
1194.85	840
1196.46	816
1198.08	828
1199.7	796
1201.31	792
1202.93	796
1204.55	750
1206.16	792
1207.78	760
1209.39	722
1211.01	716
1212.62	760
1214.24	702
1215.85	712
1217.46	716
1219.08	698
1220.69	684
1222.3	678
1223.91	692
1225.53	678
1227.14	670
1228.75	680
1230.36	636
1231.97	676
1233.58	662
1235.19	636
1236.8	640
1238.41	642
1240.02	646
1241.63	626
1243.23	620
1244.84	638
1246.45	652
1248.06	646
1249.67	622
1251.27	636
1252.88	652
1254.48	660
1256.09	624
1257.7	630
1259.3	676
1260.91	634
1262.51	630
1264.12	612
1265.72	616
1267.32	642
1268.93	648
1270.53	636
1272.13	644
1273.73	636
1275.34	642
1276.94	660
1278.54	640
1280.14	646
1281.74	612
1283.35	610
1284.94	606
1286.54	636
1288.15	642
1289.74	648
1291.34	632
1292.94	612
1294.54	626
1296.14	638
1297.74	648
1299.33	640
1300.93	644
1302.53	642
1304.12	646
1305.72	642
1307.32	654
1308.91	658
1310.51	616
1312.1	656
1313.7	656
1315.29	602
1316.89	618
1318.48	644
1320.07	660
1321.67	632
1323.26	630
1324.85	614
1326.45	646
1328.04	670
1329.63	668
1331.22	626
1332.81	670
1334.4	654
1335.99	668
1337.58	630
1339.17	652
1340.77	662
1342.35	668
1343.94	652
1345.53	650
1347.12	644
1348.71	660
1350.3	660
1351.88	660
1353.47	658
1355.06	680
1356.64	642
1358.23	666
1359.82	654
1361.4	664
1362.99	628
1364.57	646
1366.16	634
1367.74	664
1369.33	622
1370.91	646
1372.49	652
1374.08	632
1375.66	666
1377.24	642
1378.82	632
1380.41	628
1381.99	644
1383.57	622
1385.15	668
1386.73	658
1388.31	632
1389.89	632
1391.47	654
1393.05	670
1394.63	628
1396.21	648
1397.79	654
1399.37	664
1400.95	662
1402.52	658
1404.1	624
1405.68	652
1407.25	638
1408.83	644
1410.41	640
1411.98	678
1413.56	682
1415.13	664
1416.71	642
1418.29	654
1419.86	660
1421.43	648
1423.01	612
1424.58	640
1426.15	682
1427.73	656
1429.3	632
1430.87	672
1432.44	670
1434.02	650
1435.59	654
1437.16	664
1438.73	626
1440.3	628
1441.87	654
1443.44	650
1445.01	688
1446.58	644
1448.15	692
1449.72	676
1451.29	630
1452.85	672
1454.42	640
1455.99	626
1457.56	658
1459.12	642
1460.69	664
1462.26	682
1463.82	648
1465.39	676
1466.95	636
1468.52	628
1470.08	696
1471.65	660
1473.21	664
1474.78	632
1476.34	652
1477.9	662
1479.47	678
1481.03	650
1482.59	654
1484.16	662
1485.72	658
1487.28	662
1488.84	650
1490.4	636
1491.96	646
1493.52	694
1495.08	666
1496.64	676
1498.2	678
1499.76	662
1501.32	682
1502.88	622
1504.44	668
1506	682
1507.55	702
1509.11	696
1510.67	702
1512.22	682
1513.78	682
1515.34	690
1516.89	716
1518.45	682
1520.01	684
1521.56	640
1523.11	664
1524.67	662
1526.22	664
1527.78	702
1529.33	682
1530.88	660
1532.44	712
1533.99	688
1535.54	666
1537.09	688
1538.65	668
1540.2	680
1541.75	656
1543.3	664
1544.85	676
1546.4	698
1547.95	688
1549.5	652
1551.05	682
1552.6	688
1554.15	720
1555.7	712
1557.25	664
1558.79	668
1560.34	662
1561.89	702
1563.43	696
1564.98	676
1566.53	706
1568.08	684
1569.62	680
1571.17	684
1572.71	674
1574.26	680
1575.8	716
1577.35	698
1578.89	686
1580.43	664
1581.98	668
1583.52	672
1585.06	684
1586.61	700
1588.15	668
1589.69	694
1591.23	674
1592.77	652
1594.32	686
1595.86	712
1597.4	678
1598.94	688
1600.48	698
1602.02	680
1603.56	698
1605.1	650
1606.64	667.462
1608.18	652.72
1609.71	657.689
1611.25	668.597
1612.79	678.823
1614.33	706.26
1615.86	659.515
1617.4	627.211
1618.94	689.931
1620.47	674.931
1622.01	663.349
1623.55	667.671
1625.08	651.663
1626.62	645.491
1628.15	660.807
1629.69	623.572
1631.22	653.591
1632.75	677.855
1634.29	652.789
1635.82	675.406
1637.35	661.677
1638.89	629.222
1640.42	661.109
1641.95	664.923
1643.48	644.34
1645.02	647.133
1646.55	659.522
1648.08	647.801
1649.61	649.318
1651.14	648.739
1652.67	643.612
1654.2	650.019
1655.73	632.538
1657.26	654.802
1658.79	651.553
1660.32	653.475
1661.84	631.161
1663.37	652.534
1664.9	639.077
1666.43	661.225
1667.96	650.142
1669.48	658.802
1671.01	646.256
1672.54	672.75
1674.06	650.438
1675.59	658.859
1677.11	609.854
1678.64	629.141
1680.16	642.064
1681.69	629.594
1683.21	640.973
1684.74	648.087
1686.26	645.272
1687.79	645.405
1689.31	608.231
1690.83	651.919
1692.35	636.695
1693.88	637.659
1695.4	634.798
1696.92	623.818
1698.44	628.453
1699.96	619.268
1701.48	631.549
1703.01	627.649
1704.53	626.287
1706.05	642.992
1707.57	635.087
1709.09	592.662
1710.6	632.618
1712.12	640.669
1713.64	631.809
1715.16	626.46
1716.68	610.178
1718.2	635.69
1719.71	612.08
1721.23	627.588
1722.75	615.264
1724.27	630.907
1725.78	584.037
1727.3	608.622
1728.81	611.861
1730.33	622.73
1731.84	597.466
1733.36	606.369
1734.88	590.073
1736.39	605.02
1737.9	612.373
1739.42	596.945
1740.93	600.054
1742.44	617.591
1743.96	589.169
1745.47	610.556
1746.98	617.364
1748.49	588.098
1750.01	587.37
1751.52	605.871
1753.03	594.468
1754.54	586.998
1756.05	575.868
1757.56	620.288
1757.63	622
1759.14	574
1760.66	582
1762.18	568
1763.69	584
1765.21	576
1766.72	560
1768.24	574
1769.75	580
1771.27	586
1772.78	594
1774.3	590
1775.81	596
1777.32	586
1778.84	584
1780.35	594
1781.86	580
1783.38	618
1784.89	586
1786.4	592
1787.91	576
1789.42	616
1790.93	570
1792.44	588
1793.95	594
1795.47	572
1796.98	610
1798.48	596
1799.99	596
1801.5	606
1803.01	598
1804.52	558
1806.03	598
1807.54	598
1809.04	586
1810.55	588
1812.06	582
1813.57	604
1815.07	574
1816.58	596
1818.08	588
1819.59	598
1821.09	606
1822.6	592
1824.11	582
1825.61	602
1827.11	612
1828.62	600
1830.12	606
1831.63	602
1833.13	600
1834.63	572
1836.13	568
1837.64	590
1839.14	582
1840.64	598
1842.14	592
1843.64	622
1845.14	554
1846.64	602
1848.14	592
1849.64	578
1851.14	600
1852.64	600
1854.14	588
1855.64	590
1857.14	576
1858.64	612
1860.14	598
1861.64	592
1863.13	596
1864.63	578
1866.13	590
1867.63	598
1869.12	572
1870.62	598
1872.11	572
1873.61	596
1875.1	588
1876.6	582
1878.09	594
1879.59	608
1881.08	576
1882.58	622
1884.07	620
1885.56	620
1887.06	600
1888.55	598
1890.04	620
1891.54	618
1893.03	606
1894.52	614
1896.01	614
1897.5	588
1898.99	620
1900.48	610
1901.97	612
1903.46	606
1904.96	610
1906.44	606
1907.93	602
1909.42	598
1910.91	594
1912.4	610
1913.89	596
1915.38	608
1916.86	608
1918.35	608
1919.84	598
1921.32	620
1922.81	606
1924.3	622
1925.78	604
1927.27	612
1928.76	602
1930.24	592
1931.72	614
1933.21	604
1934.69	624
1936.18	590
1937.66	606
1939.15	616
1940.63	618
1942.11	600
1943.59	606
1945.08	608
1946.56	590
1948.04	582
1949.52	622
1951	624
1952.48	596
1953.97	594
1955.45	592
1956.93	604
1958.41	618
1959.89	576
1961.37	618
1962.85	602
1964.32	598
1965.8	622
1967.28	610
1968.76	598
1970.24	602
1971.71	622
1973.19	608
1974.67	592
1976.15	604
1977.62	616
1979.1	610
1980.57	612
1982.05	604
1983.53	608
1985	618
1986.48	608
1987.95	594
1989.42	614
1990.9	608
1992.37	584
1993.85	614
1995.32	618
1996.79	574
1998.26	592
1999.74	586
2001.21	584
2002.68	600
2004.15	610
2005.62	630
2007.09	584
2008.56	616
2010.03	610
2011.51	612
2012.98	588
2014.44	600
2015.92	620
2017.38	594
2018.85	598
2020.32	586
2021.79	604
2023.26	640
2024.73	604
2026.19	630
2027.66	630
2029.13	598
2030.59	642
2032.06	628
2033.53	604
2034.99	624
2036.46	608
2037.92	618
2039.39	608
2040.85	590
2042.32	616
2043.78	608
2045.25	616
2046.71	602
2048.17	598
2049.64	622
2051.1	588
2052.56	594
2054.02	604
2055.49	626
2056.95	590
2058.41	626
2059.87	628
2061.33	624
2062.79	616
2064.25	612
2065.71	600
2067.17	642
2068.63	614
2070.09	632
2071.55	614
2073.01	640
2074.47	632
2075.93	632
2077.39	616
2078.84	624
2080.3	638
2081.76	618
2083.22	618
2084.67	608
2086.13	612
2087.59	614
2089.04	600
2090.5	612
2091.95	588
2093.41	626
2094.86	638
2096.32	616
2097.77	620
2099.23	598
2100.68	606
2102.13	640
2103.59	610
2105.04	610
2106.49	634
2107.95	584
2109.4	602
2110.85	596
2112.3	606
2113.75	632
2115.21	608
2116.66	594
2118.11	604
2119.56	628
2121.01	620
2122.46	610
2123.91	600
2125.36	628
2126.8	596
2128.25	612
2129.7	636
2131.15	594
2132.6	606
2134.05	640
2135.49	632
2136.94	616
2138.39	610
2139.83	594
2141.28	608
2142.73	626
2144.17	666
2145.62	640
2147.06	602
2148.51	594
2149.95	622
2151.4	600
2152.84	604
2154.29	598
2155.73	626
2157.17	612
2158.62	634
2160.06	602
2161.5	624
2162.95	642
2164.39	632
2165.83	628
2167.27	628
2168.71	642
2170.15	610
2171.59	632
2173.04	640
2174.48	646
2175.92	640
2177.36	630
2178.79	616
2180.24	618
2181.67	634
2183.11	622
2184.55	618
2185.99	622
2187.43	638
2188.86	626
2190.3	640
2191.74	640
2193.18	600
2194.61	612
2196.05	616
2197.49	628
2198.92	598
2200.36	642
2201.79	590
2203.23	616
2204.66	604
2206.1	628
2207.53	630
2208.97	618
2210.4	620
2211.83	634
2213.27	624
2214.7	592
2216.13	570
2217.57	612
2219	576
2220.43	600
2221.86	620
2223.29	602
2224.72	622
2226.15	596
2227.59	614
2229.02	582
2230.45	556
2231.88	598
2233.31	590
2234.74	614
2236.16	610
2237.59	622
2239.02	620
2240.45	588
2241.88	584
2243.31	642
2244.73	630
2246.16	584
2247.59	612
2249.01	594
2250.44	618
2251.87	616
2253.29	616
2254.72	606
2256.15	606
2257.57	620
2259	592
2260.42	594
2261.84	572
2263.27	596
2264.69	592
2266.12	604
2267.54	608
2268.96	592
2270.39	630
2271.81	606
2273.23	610
2274.65	604
2276.07	604
2277.5	592
2278.92	616
2280.34	598
2281.76	604
2283.18	624
2284.6	608
2286.02	612
2287.44	614
2288.86	632
2290.28	600
2291.7	606
2293.12	612
2294.54	628
2295.95	642
2297.37	624
2298.79	674
2300.21	630
2301.62	634
2303.04	628
2304.46	610
2305.88	644
2307.29	606
2308.71	628
2310.12	620
2311.54	596
2312.95	644
2314.37	656
2315.78	674
2317.2	646
2318.61	658
2320.02	654
2321.44	640
2322.85	666
2324.27	666
2325.68	672
2327.09	712
2328.5	712
2329.92	712
2331.33	686
2332.74	642
2334.15	670
2335.56	710
2336.97	676
2338.38	652
2339.79	660
2341.2	688
2342.61	688
2344.02	664
2345.43	686
2346.84	680
2348.25	676
2349.66	688
2351.07	694
2352.48	702
2353.88	698
2355.29	678
2356.7	702
2358.11	694
2359.51	680
2360.92	712
2362.32	710
2363.73	720
2365.14	694
2366.54	722
2367.95	732
2369.35	712
2370.76	708
2372.16	714
2373.57	724
2374.97	750
2376.37	748
2377.78	708
2379.18	738
2380.58	732
2381.99	748
2383.39	736
2384.79	722
2386.19	718
2387.59	754
2389	728
2390.4	746
2391.8	722
2393.2	736
2394.6	746
2396	776
2397.4	738
2398.8	722
2400.2	732
2401.6	744
2403	742
2404.39	750
2405.79	758
2407.19	756
2408.59	780
2409.99	756
2411.38	774
2412.78	772
2414.18	788
2415.57	786
2416.97	754
2418.37	784
2419.76	770
2421.16	764
2422.55	756
2423.95	794
2425.34	760
2426.74	794
2428.13	762
2429.53	796
2430.92	776
2432.31	796
2433.71	792
2435.1	794
2436.49	762
2437.89	758
2439.28	810
2440.67	800
2442.06	802
2443.45	770
2444.85	776
2446.24	782
2447.63	770
2449.02	788
2450.41	774
2451.8	766
2453.19	784
2454.58	746
2455.97	816
2457.36	774
2458.75	772
2460.13	780
2461.52	776
2462.91	770
2464.3	790
2465.69	768
2467.07	798
2468.46	778
2469.85	748
2471.24	766
2472.62	754
2474.01	782
2475.39	774
2476.78	782
2478.16	772
2479.55	754
2480.94	738
2482.32	754
2483.7	782
2485.09	780
2486.47	788
2487.85	782
2489.24	768
2490.62	760
2492	776
2493.39	778
2494.77	776
2496.15	766
2497.53	770
2498.92	750
2500.3	804
2501.68	790
2503.06	796
2504.44	784
2505.82	756
2507.2	780
2508.58	794
2509.96	772
2511.34	766
2512.72	762
2514.1	794
2515.48	774
2516.85	758
2518.23	774
2519.61	792
2520.99	796
2522.37	748
2523.74	760
2525.12	756
2526.5	778
2527.87	776
2529.25	744
2530.63	766
2532	794
2533.38	766
2534.75	780
2536.13	778
2537.5	796
2538.88	784
2540.25	784
2541.62	782
2543	772
2544.37	778
2545.75	786
2547.12	766
2548.49	780
2549.86	776
2551.24	784
2552.61	774
2553.98	800
2555.35	752
2556.72	782
2558.09	760
2559.47	788
2560.84	784
2562.21	782
2563.57	774
2564.95	784
2566.32	776
2567.68	768
2569.05	792
2570.42	780
2571.79	784
2573.16	764
2574.53	762
2575.9	768
2577.26	764
2578.63	788
2580	792
2581.36	800
2582.73	728
2584.1	788
2585.46	790
2586.83	798
2588.19	788
2589.56	802
2590.93	776
2592.29	788
2593.66	740
2595.02	784
2596.39	802
2597.75	768
2599.11	786
2600.47	748
2601.84	792
2603.2	782
2604.56	784
2605.93	818
2607.29	788
2608.65	794
2610.01	798
2611.38	778
2612.74	776
2614.1	776
2615.46	794
2616.82	810
2618.18	802
2619.54	828
2620.9	818
2622.26	766
2623.62	814
2624.98	808
2626.34	820
2627.69	826
2629.05	788
2630.41	816
2631.77	790
2633.13	792
2634.48	800
2635.84	798
2637.2	836
2638.56	842
2639.91	810
2641.27	802
2642.62	816
2643.98	802
2645.33	802
2646.69	838
2648.05	794
2649.4	808
2650.75	822
2652.11	846
2653.46	808
2654.82	838
2656.17	832
2657.52	816
2658.88	832
2660.23	808
2661.58	820
2662.94	830
2664.29	834
2665.64	830
2666.99	828
2668.34	792
2669.69	844
2671.04	816
2672.39	788
2673.75	812
2675.09	822
2676.45	822
2677.79	836
2679.14	846
2680.49	828
2681.84	810
2683.19	838
2684.54	822
2685.89	804
2687.24	806
2688.58	800
2689.93	832
2691.28	782
2692.63	858
2693.97	808
2695.32	822
2696.67	828
2698.01	796
2699.36	830
2700.7	824
2702.05	836
2703.39	796
2704.74	828
2706.08	844
2707.43	788
2708.77	820
2710.12	816
2711.46	806
2712.8	838
2714.15	856
2715.49	826
2716.83	836
2718.17	782
2719.52	840
2720.86	830
2722.2	848
2723.54	822
2724.88	854
2726.22	838
2727.57	834
2728.91	858
2730.25	830
2731.59	816
2732.93	814
2734.27	842
2735.61	852
2736.95	848
2738.28	852
2739.62	850
2740.96	834
2742.3	856
2743.64	850
2744.98	836
2746.31	844
2747.65	858
2748.99	828
2750.33	860
2751.66	808
2753	830
2754.33	830
2755.67	844
2757.01	844
2758.34	846
2759.68	854
2761.01	882
2762.35	838
2763.68	848
2765.01	872
2766.35	864
2767.68	886
2769.02	820
2770.35	832
2771.68	854
2773.02	870
2774.35	872
2775.68	884
2777.01	866
2778.35	898
2779.68	878
2781.01	838
2782.34	894
2783.67	892
2785	878
2786.33	862
2787.66	882
2788.99	882
2790.32	898
2791.65	894
2792.98	866
2794.31	878
2795.64	846
2796.97	906
2798.3	876
2799.62	916
2800.95	884
2802.28	892
2803.61	908
2804.93	910
2806.26	886
2807.59	888
2808.91	912
2810.24	906
2811.57	886
2812.89	900
2814.22	938
2815.54	886
2816.87	900
2818.19	908
2819.52	882
2820.84	866
2822.17	880
2823.49	930
2824.81	918
2826.14	908
2827.46	882
2828.78	912
2830.11	898
2831.43	918
2832.75	936
2834.07	902
2835.39	890
2836.72	934
2838.04	962
2839.36	930
2840.68	902
2842	894
2843.32	922
2844.64	942
2845.96	934
2847.28	938
2848.6	948
2849.92	952
2851.24	920
2852.56	956
2853.88	892
2855.19	950
2856.51	928
2857.83	936
2859.15	970
2860.46	932
2861.78	962
2863.1	962
2864.42	952
2865.73	932
2867.05	948
2868.36	950
2869.68	932
2871	970
2872.31	922
2873.63	930
2874.94	952
2876.26	966
2877.57	924
2878.88	944
2880.2	944
2881.51	988
2882.82	968
2884.14	970
2885.45	978
2886.76	932
2888.08	968
2889.39	984
2890.7	980
2892.01	966
2893.33	966
2894.64	954
2895.95	950
2897.26	996
2898.57	984
2899.88	940
2901.19	932
2902.5	1016
2903.81	982
2905.12	980
2906.43	972
2907.74	958
2909.05	978
2910.35	972
2911.66	1002
2912.97	988
2914.28	998
2915.59	984
2916.89	996
2918.2	981.94
2919.51	964.384
2920.82	974.576
2922.12	1004.46
2923.43	996.728
2924.73	968.033
2926.04	979.708
2927.35	1002.02
2928.65	976.618
2929.96	1002.93
2931.26	994.704
2932.57	974.384
2933.87	976.858
2935.17	1004.56
2936.48	1021.34
2937.78	984.813
2939.09	978.744
2940.39	986.434
2941.69	1035.42
2943	995.748
2944.3	1025.26
2945.6	998.683
2946.9	1006.17
2948.2	1023.39
2949.51	1009.66
2950.81	974.151
2952.11	1001.05
2953.41	997.773
2954.71	1027.41
2956.01	1024.43
2957.31	1020.15
2958.61	992.81
2959.91	1056.92
2961.21	1027.05
2962.51	1034.06
2963.81	1024.63
2965.11	1009.03
2966.41	1043.12
2967.71	1044.72
2969.01	1048.18
2970.3	1048.12
2971.6	1041.06
2972.9	1016.3
2974.2	1045.41
2975.49	1026.17
2976.79	1034.29
2978.09	1024.32
2979.39	1024.58
2980.68	1039.72
2981.98	1048.84
2983.27	1016.49
2984.57	1059.17
2985.86	1074.28
2987.16	1054.67
2988.45	1053.68
2989.75	1051.3
2991.04	1055.01
2992.34	1063
2993.63	1076.46
2994.93	1080.98
2996.22	1052.42
2997.51	1052.58
2998.81	1070.25
3000.1	1075.4
3001.39	1066.34
3002.68	1075.47
3003.98	1062.63
3005.27	1073.27
3006.56	1075.48
3007.85	1058.15
3009.14	1091.96
3010.43	1062.54
3011.72	1080.93
3013.01	1091.41
3014.31	1078.57
3015.59	1105.43
3016.89	1106.36
3018.18	1094.41
3019.47	1083.44
3020.75	1115.97
3022.04	1098.93
3023.33	1099.89
3024.62	1094.12
3025.91	1085.08
3027.2	1088.6
3028.48	1099.9
3029.77	1115.14
3031.06	1099.57
3032.35	1092.59
3033.64	1121.9
3034.92	1106.84
3036.21	1089.98
3037.5	1115.94
3038.78	1089.94
3040.07	1111.03
3041.35	1119.57
3042.64	1113.28
3043.92	1104.24
3045.21	1115.87
3046.49	1128.37
3047.78	1118.74
3048.11	1114
3049.4	1130
3050.69	1140
3051.98	1136
3053.27	1174
3054.56	1118
3055.85	1116
3057.14	1160
3058.43	1116
3059.72	1142
3061.01	1140
3062.29	1146
3063.58	1146
3064.87	1162
3066.16	1144
3067.44	1124
3068.73	1138
3070.02	1160
3071.31	1136
3072.59	1118
3073.88	1166
3075.16	1118
3076.45	1134
3077.73	1178
3079.02	1178
3080.31	1180
3081.59	1176
3082.87	1190
3084.16	1164
3085.44	1142
3086.73	1172
3088.01	1166
3089.29	1186
3090.58	1180
3091.86	1126
3093.14	1164
3094.43	1174
3095.71	1162
3096.99	1162
3098.27	1206
3099.55	1190
3100.84	1134
3102.12	1188
3103.4	1184
3104.68	1186
3105.96	1202
3107.24	1234
3108.52	1194
3109.8	1214
3111.08	1214
3112.36	1220
3113.64	1198
3114.92	1228
3116.2	1192
3117.48	1204
3118.75	1218
3120.03	1148
3121.31	1228
3122.59	1238
3123.87	1212
3125.14	1242
3126.42	1224
3127.7	1278
3128.97	1208
3130.25	1232
3131.53	1274
3132.8	1234
3134.08	1248
3135.35	1268
3136.63	1260
3137.9	1254
3139.18	1274
3140.45	1252
3141.73	1268
3143	1282
3144.28	1282
3145.55	1274
3146.82	1268
3148.1	1288
3149.37	1274
3150.64	1254
3151.92	1274
3153.19	1290
3154.46	1272
3155.73	1264
3157.01	1294
3158.28	1274
3159.55	1278
3160.82	1304
3162.09	1286
3163.36	1276
3164.63	1300
3165.9	1290
3167.17	1304
3168.44	1290
3169.71	1274
3170.98	1298
3172.25	1304
3173.52	1344
3174.79	1318
3176.06	1300
3177.32	1274
3178.59	1302
3179.86	1310
3181.13	1252
3182.4	1334
3183.66	1284
3184.93	1284
3186.2	1322
3187.46	1294
3188.73	1346
3190	1326
3191.26	1346
3192.53	1346
3193.79	1318
3195.06	1320
3196.32	1332
3197.59	1318
3198.85	1302
3200.12	1316
3201.38	1332
3202.65	1304
3203.91	1344
3205.17	1322
3206.44	1306
3207.7	1372
3208.96	1354
3210.23	1366
3211.49	1348
3212.75	1310
3214.01	1362
3215.27	1364
3216.54	1378
3217.8	1364
3219.06	1342
3220.32	1380
3221.58	1342
3222.84	1340
3224.1	1392
3225.36	1324
3226.62	1392
3227.88	1340
3229.14	1348
3230.4	1358
3231.66	1388
3232.92	1354
3234.18	1376
3235.44	1412
3236.69	1376
3237.95	1348
3239.21	1386
3240.47	1342
3241.72	1416
3242.98	1352
3244.24	1378
3245.5	1394
3246.75	1382
3248.01	1410
3249.26	1396
3250.52	1424
3251.78	1398
3253.03	1360
3254.29	1414
3255.54	1380
3256.8	1428
3258.05	1396
3259.3	1396
3260.56	1392
3261.81	1446
3263.07	1414
3264.32	1420
3265.57	1414
3266.83	1450
3268.08	1452
3269.33	1448
3270.58	1444
3271.84	1422
3273.09	1396
3274.34	1464
3275.59	1450
3276.84	1458
3278.09	1416
3279.35	1436
3280.6	1448
3281.85	1442
3283.1	1456
3284.35	1468
3285.6	1424
3286.85	1476
3288.1	1470
3289.35	1464
3290.59	1476
3291.84	1488
3293.09	1448
3294.34	1428
3295.59	1520
3296.84	1484
3298.08	1506
3299.33	1448
3300.58	1494
3301.83	1494
3303.07	1490
3304.32	1468
3305.57	1498
3306.81	1486
3308.06	1524
3309.3	1558
3310.55	1480
3311.79	1542
3313.04	1510
3314.29	1526
3315.53	1518
3316.77	1526
3318.02	1532
3319.26	1494
3320.51	1530
3321.75	1528
3322.99	1552
3324.24	1562
3325.48	1526
3326.72	1514
3327.97	1560
3329.21	1534
3330.45	1508
3331.69	1562
3332.93	1544
3334.18	1534
3335.42	1540
3336.66	1594
3337.9	1542
3339.14	1564
3340.38	1544
3341.62	1602
3342.86	1552
3344.1	1552
3345.34	1588
3346.58	1564
3347.82	1574
3349.06	1574
3350.3	1576
3351.54	1584
3352.77	1560
3354.01	1562
3355.25	1580
3356.49	1566
3357.73	1576
3358.96	1584
3360.2	1598
3361.44	1584
3362.67	1582
3363.91	1622
3365.15	1588
3366.38	1560
3367.62	1582
3368.85	1598
3370.09	1596
3371.33	1604
3372.56	1586
3373.8	1622
3375.03	1602
3376.26	1594
3377.5	1608
3378.73	1632
3379.97	1572
3381.2	1616
3382.43	1588
3383.67	1626
3384.9	1594
3386.13	1640
3387.37	1596
3388.6	1606
3389.83	1622
3391.06	1632
3392.29	1632
3393.52	1620
3394.76	1646
3395.99	1606
3397.22	1630
3398.45	1624
3399.68	1662
3400.91	1662
3402.14	1658
3403.37	1674
3404.6	1624
3405.83	1662
3407.06	1678
3408.29	1696
3409.51	1668
3410.74	1660
3411.97	1660
3413.2	1624
3414.43	1648
3415.66	1694
3416.88	1724
3418.11	1692
3419.34	1682
3420.56	1684
3421.79	1686
3423.02	1666
3424.24	1684
3425.47	1678
3426.7	1646
3427.92	1688
3429.15	1758
3430.37	1740
3431.6	1664
3432.82	1676
3434.05	1698
3435.27	1736
3436.5	1758
3437.72	1718
3438.94	1742
3440.17	1744
3441.39	1716
3442.61	1758
3443.84	1776
3445.06	1788
3446.28	1754
3447.51	1740
3448.73	1754
3449.95	1726
3451.17	1796
3452.39	1776
3453.61	1780
3454.83	1792
3456.06	1784
3457.28	1752
3458.5	1804
3459.72	1838
3460.94	1802
3462.16	1816
3463.38	1806
3464.6	1766
3465.82	1794
3467.04	1800
3468.25	1780
3469.47	1814
3470.69	1788
3471.91	1848
3473.13	1816
3474.34	1766
3475.56	1814
3476.78	1814
3478	1870
3479.21	1826
3480.43	1822
3481.65	1830
3482.86	1796
3484.08	1830
3485.3	1808
3486.51	1854
3487.73	1856
3488.94	1858
3490.16	1834
3491.37	1844
3492.59	1812
3493.8	1850
3495.02	1824
3496.23	1790
3497.45	1840
3498.66	1828
3499.87	1838
3501.09	1838
3502.3	1834
3503.51	1806
3504.72	1854
3505.94	1816
3507.15	1828
3508.36	1810
3509.57	1880
3510.79	1854
3512	1802
3513.21	1792
3514.42	1884
3515.63	1804
3516.84	1798
3518.05	1858
3519.26	1854
3520.47	1814
3521.68	1822
3522.89	1856
3524.1	1866
3525.31	1834
3526.52	1856
3527.73	1836
3528.94	1854
3530.14	1864
3531.35	1872
3532.56	1898
3533.77	1826
3534.98	1816
3536.18	1896
3537.39	1834
3538.6	1858
3539.81	1870
3541.01	1840
3542.22	1864
3543.42	1842
3544.63	1874
3545.84	1874
3547.04	1940
3548.25	1884
3549.45	1878
3550.66	1866
3551.86	1874
3553.07	1906
3554.27	1846
3555.47	1870
3556.68	1844
3557.88	1896
3559.09	1900
3560.29	1922
3561.49	1934
3562.7	1870
3563.9	1894
3565.1	1872
3566.3	1914
3567.51	1886
3568.71	1890
3569.91	1926
3571.11	1944
3572.31	1896
3573.51	1954
3574.71	1934
3575.92	1922
3577.12	1954
3578.32	1954
3579.52	1964
3580.72	1922
3581.92	1952
3583.12	1942
3584.31	1984
3585.51	2002
3586.71	2006
3587.91	1956
3589.11	1934
3590.31	1996
3591.51	1996
3592.71	1990
3593.9	2006
3595.1	1996
3596.3	2004
3597.49	1990
3598.69	2006
3599.89	2058
3601.08	1974
3602.28	2038
3603.48	2026
3604.67	1990
3605.87	2022
3607.06	2006
3608.26	2048
3609.45	2040
3610.65	2006
3611.84	2034
3613.04	2032
3614.23	2024
3615.43	2028
3616.62	2070
3617.82	2092
3619.01	2058
3620.2	2082
3621.39	2032
3622.59	2076
3623.78	2080
3624.97	2054
3626.17	2100
3627.36	2072
3628.55	2036
3629.74	2064
3630.93	2086
3632.12	2086
3633.31	2062
3634.51	2056
3635.7	2090
3636.89	2100
3638.08	2080
3639.27	2104
3640.46	2076
3641.65	2108
3642.84	2072
3644.03	2152
3645.22	2106
3646.4	2124
3647.59	2096
3648.78	2084
3649.97	2078
3651.16	2116
3652.35	2068
3653.53	2118
3654.72	2098
3655.91	2128
3657.1	2102
3658.28	2130
3659.47	2110
3660.66	2126
3661.84	2108
3663.03	2106
3664.21	2104
3665.4	2098
3666.59	2106
3667.77	2102
3668.96	2094
3670.14	2074
3671.33	2108
3672.51	2044
3673.69	2092
3674.88	2142
3676.06	2108
3677.25	2108
3678.43	2092
3679.61	2114
3680.8	2102
3681.98	2098
3683.16	2128
3684.34	2120
3685.53	2118
3686.71	2100
3687.89	2118
3689.07	2100
3690.25	2120
3691.44	2130
3692.62	2134
3693.8	2106
3694.98	2144
3696.16	2096
3697.34	2136
3698.52	2152
3699.7	2180
3700.88	2154
3702.06	2098
3703.24	2160
3704.42	2162
3705.6	2128
3706.78	2124
3707.96	2170
3709.13	2102
3710.31	2160
3711.49	2190
3712.67	2188
3713.85	2116
3715.02	2168
3716.2	2160
3717.38	2212
3718.56	2190
3719.73	2176
3720.91	2208
3722.08	2194
3723.26	2200
3724.44	2182
3725.61	2176
3726.79	2198
3727.96	2198
3729.14	2206
3730.31	2166
3731.49	2202
3732.66	2220
3733.84	2208
3735.01	2186
3736.18	2180
3737.36	2258
3738.53	2234
3739.7	2236
3740.88	2246
3742.05	2244
3743.22	2224
3744.4	2286
3745.57	2206
3746.74	2260
3747.91	2262
3749.09	2290
3750.26	2304
3751.43	2276
3752.6	2278
3753.77	2272
3754.94	2282
3756.11	2300
3757.28	2306
3758.45	2318
3759.62	2224
3760.79	2246
3761.96	2306
3763.13	2322
3764.3	2292
3765.47	2310
3766.64	2268
3767.81	2318
3768.98	2296
3770.14	2302
3771.31	2326
3772.48	2308
3773.65	2306
3774.82	2298
3775.98	2340
3777.15	2326
3778.32	2346
3779.48	2286
3780.65	2306
3781.82	2334
3782.98	2348
3784.15	2266
3785.32	2328
3786.48	2362
3787.65	2312
3788.81	2356
3789.98	2334
3791.14	2294
3792.3	2382
3793.47	2382
3794.63	2350
3795.8	2310
3796.96	2352
3798.13	2346
3799.29	2366
3800.45	2328
3801.61	2348
3802.78	2338
3803.94	2366
3805.1	2332
3806.27	2322
3807.43	2306
3808.59	2324
3809.75	2342
3810.91	2322
3812.07	2356
3813.24	2338
3814.4	2338
3815.56	2290
3816.72	2334
3817.88	2304
3819.04	2370
3820.2	2340
3821.36	2326
3822.52	2306
3823.68	2292
3824.84	2330
3826	2334
3827.15	2300
3828.31	2378
3829.47	2314
3830.63	2346
3831.79	2374
3832.95	2364
3834.1	2338
3835.26	2326
3836.42	2372
3837.58	2374
3838.73	2354
3839.89	2338
3841.04	2362
3842.2	2348
3843.36	2290
3844.51	2368
3845.67	2328
3846.83	2360
3847.98	2400
3849.14	2320
3850.29	2358
3851.45	2352
3852.6	2416
3853.76	2372
3854.91	2390
3856.06	2376
3857.22	2390
3858.37	2392
3859.52	2368
3860.68	2426
3861.83	2414
3862.98	2380
3864.14	2422
3865.29	2382
3866.44	2464
3867.59	2394
3868.75	2454
3869.9	2378
3871.05	2412
3872.2	2396
3873.35	2426
3874.5	2426
3875.65	2416
3876.8	2424
3877.95	2444
3879.1	2436
3880.25	2430
3881.4	2490
3882.55	2522
3883.7	2474
3884.85	2498
3886	2482
3887.15	2456
3888.3	2502
3889.45	2500
3890.6	2482
3891.75	2416
3892.89	2444
3894.04	2476
3895.19	2544
3896.34	2506
3897.48	2474
3898.63	2464
3899.78	2500
3900.92	2526
3902.07	2548
3903.22	2520
3904.36	2540
3905.51	2536
3906.65	2492
3907.8	2486
3908.94	2478
3910.09	2508
3911.23	2556
3912.38	2574
3913.52	2526
3914.67	2532
3915.81	2574
3916.96	2556
3918.1	2564
3919.24	2554
3920.39	2502
3921.53	2568
3922.67	2562
3923.82	2602
3924.96	2572
3926.1	2548
3927.24	2524
3928.39	2602
3929.53	2554
3930.67	2556
3931.81	2552
3932.95	2572
3934.09	2556
3935.24	2624
3936.38	2552
3937.52	2550
3938.66	2566
3939.8	2608
3940.94	2580
3942.08	2582
3943.22	2556
3944.36	2558
3945.5	2580
3946.63	2590
3947.77	2520
3948.91	2548
3950.05	2622
3951.19	2580
3952.33	2624
3953.47	2522
3954.6	2606
3955.74	2554
3956.88	2594
3958.02	2580
3959.15	2592
3960.29	2542
3961.43	2578
3962.56	2586
3963.7	2594
3964.84	2558
3965.97	2556
3967.11	2558
3968.24	2564
3969.38	2582
3970.51	2532
3971.65	2574
3972.78	2560
3973.92	2560
3975.05	2584
3976.19	2604
3977.32	2544
3978.45	2626
3979.59	2528
3980.72	2576
3981.85	2536
3982.99	2566
3984.12	2550
3985.25	2558
3986.39	2574
3987.52	2628
3988.65	2584
3989.78	2576
3990.91	2644
3992.05	2568
3993.18	2608
3994.31	2600
3995.44	2552
3996.57	2624
3997.7	2666
3998.83	2634
3999.96	2660
