#Acq. time (s)=	20
#Accumulations=	2
#Range (cm-¹)=	50...4000
#Windows=	3
#Autofocus=	Off
#AutoExposure=	Off
#Spike filter=	Multiple accum.
#Delay time (s)=	0
#Binning=	1
#Readout mode=	Signal
#DeNoise=	Off
#ICS correction=	Off
#Dark correction=	Off
#Inst. Process=	Off
#Instrument=	LabRAM HR Evol
#Detector=	Syncerity OE
#Objective=	x100_VIS
#Grating=	600 (500nm)
#ND Filter=	100%
#Laser=	532nm_Edge
#Hole=	100.021
#Range=	Visible
#Project=	Omar
#Sample=	
#Site=	21-09-22
#Title=	 CN-Sastre
#Remark=	
#Date=	21.09.2022 14:37
#Acquired=	21.09.2022 14:37:50
51.0918	44
52.9354	40
54.7807	54
56.6235	70
58.4681	94
60.3102	134
62.154	188
63.9954	260
65.8385	314
67.6792	396
69.5216	494
71.3615	644
73.2032	846
75.0424	980
76.8834	1138
78.7218	1236
80.5621	1386
82.3998	1576
84.2393	1666
86.0764	1732
87.9152	1856
89.7515	1822
91.5874	1808
93.4251	1838
95.2603	1770
97.0973	1754
98.9318	1788
100.766	1796
102.602	1858
104.435	1908
106.27	1932
108.103	1920
109.936	1862
111.77	1914
113.601	1910
115.433	1830
117.266	1840
119.096	1806
120.926	1868
122.758	1826
124.588	1826
126.417	1776
128.246	1878
130.076	1860
131.904	1810
133.732	1778
135.561	1818
137.388	1800
139.215	1818
141.041	1832
142.869	1790
144.695	1786
146.52	1804
148.345	1778
150.171	1834
151.995	1822
153.819	1838
155.642	1810
157.465	1804
159.29	1740
161.112	1784
162.934	1734
164.756	1720
166.577	1760
168.398	1768
170.219	1748
172.041	1770
173.861	1704
175.68	1714
177.499	1736
179.318	1696
181.137	1686
182.955	1720
184.772	1686
186.592	1698
188.409	1702
190.225	1674
192.042	1708
193.857	1718
195.673	1662
197.488	1644
199.303	1676
201.118	1668
202.932	1668
204.746	1680
206.559	1618
208.372	1656
210.185	1646
211.997	1676
213.809	1642
215.621	1628
217.432	1634
219.243	1628
221.054	1638
222.864	1674
224.674	1622
226.483	1582
228.293	1584
230.101	1596
231.91	1620
233.718	1606
235.524	1578
237.331	1592
239.138	1614
240.945	1604
242.751	1610
244.557	1654
246.363	1620
248.168	1644
249.971	1608
251.776	1614
253.58	1626
255.384	1606
257.188	1592
258.991	1622
260.792	1586
262.594	1590
264.396	1630
266.198	1616
268	1652
269.799	1578
271.599	1626
273.4	1628
275.2	1572
277	1592
278.797	1612
280.596	1614
282.395	1600
284.193	1596
285.989	1596
287.786	1636
289.584	1636
291.378	1616
293.175	1628
294.971	1642
296.765	1618
298.561	1636
300.356	1652
302.148	1632
303.943	1644
305.737	1654
307.529	1658
309.322	1656
311.115	1636
312.906	1698
314.698	1634
316.49	1652
318.28	1674
320.071	1692
321.86	1680
323.651	1676
325.441	1700
327.229	1672
329.019	1668
330.806	1662
332.595	1688
334.381	1650
336.17	1684
337.955	1636
339.743	1710
341.528	1640
343.315	1652
345.099	1656
346.885	1716
348.669	1670
350.455	1642
352.238	1684
354.022	1670
355.805	1678
357.589	1706
359.371	1684
361.154	1640
362.935	1686
364.718	1716
366.498	1684
368.278	1720
370.06	1704
371.839	1738
373.62	1682
375.398	1706
377.177	1734
378.956	1750
380.734	1738
382.513	1718
384.29	1760
386.067	1742
387.845	1738
389.621	1710
391.396	1758
393.173	1732
394.948	1722
396.723	1760
398.499	1742
400.273	1734
402.046	1724
403.819	1752
405.594	1756
407.366	1696
409.138	1734
410.91	1748
412.683	1742
414.454	1742
416.225	1690
417.995	1720
419.768	1744
421.537	1748
423.307	1750
425.076	1730
426.844	1724
428.615	1722
430.382	1748
432.15	1700
433.917	1686
435.684	1702
437.451	1724
439.219	1738
440.985	1768
442.751	1738
444.516	1738
446.281	1760
448.045	1714
449.81	1754
451.574	1760
453.337	1752
455.102	1808
456.865	1748
458.628	1728
460.39	1736
462.152	1738
463.913	1764
465.674	1770
467.435	1694
469.196	1758
470.956	1700
472.716	1762
474.475	1724
476.234	1726
477.993	1698
479.752	1788
481.51	1768
483.268	1716
485.025	1706
486.782	1728
488.539	1730
490.295	1696
492.051	1690
493.807	1724
495.563	1686
497.316	1662
499.07	1686
500.825	1660
502.579	1634
504.333	1676
506.086	1666
507.839	1660
509.592	1648
511.344	1668
513.094	1682
514.846	1686
516.597	1704
518.349	1686
520.099	1710
521.85	1722
523.598	1752
525.347	1782
527.097	1778
528.846	1868
530.595	1866
532.341	1850
534.089	1936
535.837	1952
537.584	2012
539.329	2076
541.076	2102
542.822	2170
544.568	2148
546.312	2230
548.057	2248
549.802	2298
551.545	2282
553.289	2314
555.033	2358
556.775	2300
558.518	2322
560.261	2258
562.002	2292
563.744	2286
565.487	2264
567.226	2302
568.968	2242
570.709	2260
572.447	2234
574.188	2174
575.926	2192
577.665	2132
579.405	2120
581.142	2088
582.88	2112
584.617	2064
586.355	2028
588.091	2034
589.828	2030
591.565	1984
593.3	1954
595.036	1936
596.77	1926
598.506	1930
600.239	1878
601.974	1852
603.707	1844
605.442	1774
607.174	1802
608.905	1748
610.639	1784
612.37	1736
614.103	1718
615.833	1706
617.565	1708
619.295	1700
621.026	1666
622.755	1640
624.484	1638
626.215	1618
627.943	1566
629.67	1622
631.4	1594
633.127	1550
634.856	1582
636.582	1568
638.308	1502
640.036	1504
641.762	1496
643.487	1488
645.214	1496
646.938	1460
648.662	1444
650.386	1442
652.112	1398
653.835	1404
655.558	1412
657.282	1364
659.005	1392
660.726	1346
662.448	1344
664.171	1322
665.892	1264
667.613	1274
669.333	1246
671.053	1254
672.774	1278
674.494	1220
676.213	1204
677.931	1152
679.649	1204
681.369	1150
683.087	1154
684.804	1142
686.521	1094
688.238	1114
689.954	1056
691.67	1100
693.386	1082
695.103	1072
696.818	1038
698.533	1056
700.247	1018
701.961	1018
703.675	1014
705.389	1000
707.102	1042
708.814	976
710.527	982
712.239	938
713.951	958
715.662	962
717.373	976
719.084	966
720.795	932
722.505	952
724.215	920
725.924	946
727.633	930
729.342	932
731.051	932
732.759	910
734.467	900
736.174	872
737.882	906
739.589	900
741.295	918
742.999	922
744.705	924
746.411	924
748.116	924
749.821	926
751.526	920
753.23	926
754.934	936
756.636	916
758.34	946
760.043	934
761.745	944
763.448	962
765.148	942
766.85	950
768.551	984
770.252	946
771.953	960
773.652	994
775.352	980
777.052	974
778.751	982
780.448	960
782.147	958
783.846	980
785.544	984
787.24	960
788.938	958
790.635	950
792.33	950
794.027	978
795.723	910
797.417	954
799.113	922
800.808	942
802.501	928
804.196	950
805.89	898
807.582	948
809.276	918
810.968	902
812.661	914
814.354	916
816.044	866
817.736	840
819.426	884
821.118	852
822.807	822
824.498	830
826.186	818
827.877	814
829.565	766
831.254	772
832.942	774
834.631	788
836.317	726
838.006	738
839.692	736
841.38	730
843.065	722
844.752	730
846.437	756
848.123	738
849.808	716
851.493	716
853.177	722
854.86	730
856.545	692
858.228	718
859.912	716
861.594	714
863.276	694
864.959	740
866.64	728
868.321	756
870.003	730
871.683	740
873.363	734
875.044	778
876.723	740
878.402	726
880.083	720
881.761	728
883.439	732
885.116	738
886.795	730
888.472	732
890.149	738
891.825	750
893.503	758
895.179	768
896.854	738
898.529	766
900.204	792
901.88	806
903.555	796
905.228	798
906.902	824
908.575	780
910.25	808
911.922	806
913.595	836
915.266	844
916.938	828
918.609	850
920.28	880
921.951	862
923.623	894
925.293	904
926.963	942
928.633	948
930.302	968
931.97	934
933.639	954
935.307	944
936.975	978
938.642	1018
940.31	1018
941.977	1026
943.643	1014
945.31	1024
946.976	1020
948.641	1056
950.307	1036
951.972	1044
953.636	1066
955.301	1066
956.965	1054
958.629	1024
960.292	1038
961.955	1064
963.618	1070
965.279	1036
966.941	1070
968.603	1022
970.265	1018
971.926	1066
973.587	1084
975.248	1062
976.908	1080
978.566	1020
980.226	1066
981.886	1134
983.545	1080
985.204	1144
986.86	1142
988.519	1118
990.177	1134
991.834	1140
993.491	1174
995.147	1140
996.803	1112
998.46	1148
1000.12	1158
1001.77	1148
1003.43	1182
1005.08	1208
1006.73	1146
1008.39	1184
1010.04	1200
1011.7	1224
1013.35	1256
1015	1254
1016.65	1266
1018.3	1266
1019.96	1270
1021.61	1308
1023.26	1322
1024.91	1344
1026.56	1330
1028.21	1332
1029.86	1382
1031.51	1426
1033.16	1416
1034.81	1482
1036.46	1456
1038.1	1450
1039.75	1522
1041.4	1534
1043.05	1516
1044.69	1568
1046.34	1600
1047.99	1536
1049.63	1644
1051.28	1652
1052.92	1668
1054.57	1692
1056.21	1736
1057.86	1742
1059.5	1740
1061.14	1796
1062.79	1814
1064.43	1842
1066.07	1834
1067.72	1872
1069.36	1904
1071	1960
1072.64	1972
1074.28	2020
1075.92	2022
1077.57	2008
1079.2	2098
1080.84	2106
1082.48	2132
1084.12	2144
1085.76	2150
1087.4	2128
1089.04	2208
1090.68	2186
1092.32	2180
1093.95	2170
1095.59	2198
1097.22	2108
1098.86	2220
1100.5	2182
1102.13	2150
1103.77	2152
1105.4	2076
1107.04	2102
1108.67	2088
1110.31	2036
1111.94	1994
1113.58	1944
1115.21	1890
1116.84	1894
1118.47	1858
1120.1	1808
1121.74	1780
1123.37	1746
1125	1694
1126.63	1638
1128.26	1652
1129.89	1584
1131.52	1562
1133.15	1542
1134.78	1532
1136.41	1468
1138.04	1436
1139.67	1446
1141.3	1420
1142.92	1376
1144.55	1322
1146.18	1328
1147.8	1288
1149.43	1262
1151.06	1234
1152.68	1278
1154.31	1216
1155.93	1230
1157.56	1212
1159.18	1192
1160.81	1148
1162.43	1146
1164.06	1102
1165.68	1124
1167.3	1112
1168.93	1086
1170.55	1034
1172.17	1004
1173.79	1036
1175.41	966
1177.03	990
1178.66	972
1180.28	988
1181.9	948
1183.52	954
1185.14	946
1186.75	924
1188.37	878
1189.99	908
1191.61	882
1193.23	890
1194.85	870
1196.46	842
1198.08	838
1199.7	828
1201.31	780
1202.93	762
1204.55	826
1206.16	802
1207.78	736
1209.39	798
1211.01	778
1212.62	774
1214.24	738
1215.85	756
1217.46	732
1219.08	718
1220.69	712
1222.3	732
1223.91	720
1225.53	696
1227.14	716
1228.75	718
1230.36	678
1231.97	730
1233.58	694
1235.19	698
1236.8	664
1238.41	676
1240.02	650
1241.63	636
1243.23	670
1244.84	694
1246.45	662
1248.06	672
1249.67	670
1251.27	660
1252.88	658
1254.48	660
1256.09	648
1257.7	650
1259.3	678
1260.91	652
1262.51	640
1264.12	652
1265.72	674
1267.32	666
1268.93	622
1270.53	666
1272.13	656
1273.73	676
1275.34	644
1276.94	688
1278.54	650
1280.14	672
1281.74	642
1283.35	682
1284.94	692
1286.54	674
1288.15	668
1289.74	662
1291.34	654
1292.94	672
1294.54	704
1296.14	670
1297.74	664
1299.33	650
1300.93	658
1302.53	648
1304.12	664
1305.72	684
1307.32	658
1308.91	674
1310.51	694
1312.1	686
1313.7	654
1315.29	668
1316.89	652
1318.48	684
1320.07	666
1321.67	698
1323.26	676
1324.85	692
1326.45	678
1328.04	674
1329.63	704
1331.22	658
1332.81	660
1334.4	706
1335.99	684
1337.58	670
1339.17	682
1340.77	664
1342.35	688
1343.94	684
1345.53	674
1347.12	696
1348.71	696
1350.3	680
1351.88	692
1353.47	652
1355.06	672
1356.64	674
1358.23	688
1359.82	682
1361.4	690
1362.99	700
1364.57	682
1366.16	654
1367.74	678
1369.33	664
1370.91	656
1372.49	654
1374.08	698
1375.66	656
1377.24	650
1378.82	684
1380.41	668
1381.99	638
1383.57	682
1385.15	692
1386.73	710
1388.31	672
1389.89	666
1391.47	662
1393.05	686
1394.63	670
1396.21	648
1397.79	654
1399.37	658
1400.95	694
1402.52	664
1404.1	648
1405.68	636
1407.25	704
1408.83	674
1410.41	684
1411.98	710
1413.56	654
1415.13	678
1416.71	668
1418.29	684
1419.86	690
1421.43	680
1423.01	674
1424.58	662
1426.15	688
1427.73	692
1429.3	688
1430.87	680
1432.44	684
1434.02	702
1435.59	676
1437.16	700
1438.73	686
1440.3	704
1441.87	662
1443.44	664
1445.01	670
1446.58	686
1448.15	674
1449.72	662
1451.29	694
1452.85	704
1454.42	650
1455.99	666
1457.56	690
1459.12	686
1460.69	664
1462.26	658
1463.82	668
1465.39	698
1466.95	688
1468.52	656
1470.08	688
1471.65	704
1473.21	678
1474.78	704
1476.34	666
1477.9	678
1479.47	692
1481.03	688
1482.59	690
1484.16	710
1485.72	672
1487.28	674
1488.84	684
1490.4	676
1491.96	698
1493.52	704
1495.08	676
1496.64	670
1498.2	696
1499.76	706
1501.32	698
1502.88	706
1504.44	680
1506	724
1507.55	696
1509.11	690
1510.67	712
1512.22	702
1513.78	692
1515.34	724
1516.89	724
1518.45	688
1520.01	698
1521.56	700
1523.11	704
1524.67	716
1526.22	680
1527.78	722
1529.33	686
1530.88	714
1532.44	680
1533.99	692
1535.54	720
1537.09	736
1538.65	716
1540.2	708
1541.75	686
1543.3	696
1544.85	692
1546.4	688
1547.95	726
1549.5	698
1551.05	730
1552.6	696
1554.15	708
1555.7	734
1557.25	714
1558.79	732
1560.34	722
1561.89	746
1563.43	712
1564.98	702
1566.53	672
1568.08	690
1569.62	674
1571.17	712
1572.71	712
1574.26	704
1575.8	712
1577.35	748
1578.89	714
1580.43	674
1581.98	706
1583.52	688
1585.06	694
1586.61	696
1588.15	690
1589.69	690
1591.23	730
1592.77	720
1594.32	692
1595.86	716
1597.4	692
1598.94	686
1600.48	682
1602.02	678
1603.56	702
1605.1	702
1606.64	669.599
1608.18	725.803
1609.71	710.807
1611.25	719.074
1612.79	679.026
1614.33	698.971
1615.86	703.55
1617.4	669.646
1618.94	713.9
1620.47	683.744
1622.01	704.716
1623.55	704.27
1625.08	691.666
1626.62	683.778
1628.15	679.128
1629.69	696.897
1631.22	690.141
1632.75	688.492
1634.29	693.711
1635.82	670.77
1637.35	650.895
1638.89	662.896
1640.42	655.768
1641.95	688.468
1643.48	662.122
1645.02	681.298
1646.55	670.241
1648.08	689.297
1649.61	663.161
1651.14	677.705
1652.67	650.934
1654.2	646.181
1655.73	673.061
1657.26	687.659
1658.79	674.24
1660.32	669.959
1661.84	669.69
1663.37	676.466
1664.9	664.214
1666.43	671.51
1667.96	682.74
1669.48	673.021
1671.01	664.925
1672.54	649.046
1674.06	649.737
1675.59	652.234
1677.11	666.641
1678.64	658.741
1680.16	657.963
1681.69	680.105
1683.21	666.706
1684.74	657.742
1686.26	658.063
1687.79	645.56
1689.31	653.384
1690.83	663.634
1692.35	672.085
1693.88	666.622
1695.4	652.279
1696.92	651.475
1698.44	656.83
1699.96	654.514
1701.48	655.994
1703.01	618.638
1704.53	651.952
1706.05	656.781
1707.57	668.854
1709.09	648.515
1710.6	649.543
1712.12	650.393
1713.64	668.909
1715.16	649.311
1716.68	654.16
1718.2	633.148
1719.71	636.633
1721.23	633.503
1722.75	656.43
1724.27	652.095
1725.78	642.618
1727.3	633.008
1728.81	619.242
1730.33	622.313
1731.84	628.307
1733.36	614.679
1734.88	635.017
1736.39	618.398
1737.9	621.275
1739.42	649.695
1740.93	643.934
1742.44	612.96
1743.96	631.449
1745.47	625.271
1746.98	598.031
1748.49	635.709
1750.01	610.72
1751.52	606.999
1753.03	606.97
1754.54	601.782
1756.05	598.024
1757.56	602.432
1757.63	602
1759.14	600
1760.66	602
1762.18	624
1763.69	642
1765.21	618
1766.72	576
1768.24	596
1769.75	584
1771.27	626
1772.78	616
1774.3	604
1775.81	622
1777.32	598
1778.84	588
1780.35	626
1781.86	606
1783.38	608
1784.89	630
1786.4	628
1787.91	606
1789.42	606
1790.93	580
1792.44	622
1793.95	588
1795.47	636
1796.98	614
1798.48	614
1799.99	636
1801.5	608
1803.01	626
1804.52	618
1806.03	624
1807.54	628
1809.04	616
1810.55	616
1812.06	626
1813.57	636
1815.07	622
1816.58	596
1818.08	618
1819.59	626
1821.09	616
1822.6	602
1824.11	598
1825.61	616
1827.11	618
1828.62	638
1830.12	616
1831.63	632
1833.13	622
1834.63	608
1836.13	644
1837.64	642
1839.14	624
1840.64	610
1842.14	612
1843.64	640
1845.14	612
1846.64	618
1848.14	624
1849.64	598
1851.14	606
1852.64	616
1854.14	622
1855.64	602
1857.14	602
1858.64	590
1860.14	614
1861.64	620
1863.13	620
1864.63	628
1866.13	614
1867.63	608
1869.12	618
1870.62	622
1872.11	630
1873.61	622
1875.1	594
1876.6	622
1878.09	618
1879.59	612
1881.08	612
1882.58	626
1884.07	616
1885.56	630
1887.06	618
1888.55	626
1890.04	638
1891.54	636
1893.03	622
1894.52	628
1896.01	608
1897.5	592
1898.99	610
1900.48	602
1901.97	648
1903.46	636
1904.96	628
1906.44	632
1907.93	626
1909.42	610
1910.91	630
1912.4	598
1913.89	632
1915.38	628
1916.86	642
1918.35	624
1919.84	620
1921.32	592
1922.81	620
1924.3	604
1925.78	624
1927.27	632
1928.76	600
1930.24	642
1931.72	630
1933.21	628
1934.69	622
1936.18	640
1937.66	652
1939.15	626
1940.63	616
1942.11	594
1943.59	622
1945.08	606
1946.56	608
1948.04	612
1949.52	620
1951	660
1952.48	612
1953.97	650
1955.45	642
1956.93	636
1958.41	638
1959.89	608
1961.37	642
1962.85	636
1964.32	618
1965.8	598
1967.28	614
1968.76	622
1970.24	640
1971.71	614
1973.19	644
1974.67	626
1976.15	596
1977.62	636
1979.1	604
1980.57	620
1982.05	632
1983.53	634
1985	624
1986.48	636
1987.95	636
1989.42	628
1990.9	618
1992.37	628
1993.85	634
1995.32	638
1996.79	638
1998.26	634
1999.74	628
2001.21	614
2002.68	626
2004.15	626
2005.62	620
2007.09	610
2008.56	640
2010.03	600
2011.51	642
2012.98	606
2014.44	608
2015.92	630
2017.38	628
2018.85	616
2020.32	614
2021.79	632
2023.26	652
2024.73	642
2026.19	612
2027.66	624
2029.13	644
2030.59	638
2032.06	610
2033.53	628
2034.99	614
2036.46	628
2037.92	632
2039.39	628
2040.85	636
2042.32	638
2043.78	622
2045.25	636
2046.71	634
2048.17	632
2049.64	668
2051.1	630
2052.56	606
2054.02	624
2055.49	624
2056.95	642
2058.41	622
2059.87	640
2061.33	658
2062.79	616
2064.25	630
2065.71	642
2067.17	624
2068.63	644
2070.09	640
2071.55	646
2073.01	644
2074.47	618
2075.93	654
2077.39	628
2078.84	630
2080.3	648
2081.76	638
2083.22	622
2084.67	650
2086.13	624
2087.59	652
2089.04	646
2090.5	652
2091.95	638
2093.41	628
2094.86	636
2096.32	662
2097.77	640
2099.23	626
2100.68	624
2102.13	638
2103.59	616
2105.04	600
2106.49	616
2107.95	640
2109.4	624
2110.85	626
2112.3	634
2113.75	668
2115.21	640
2116.66	652
2118.11	650
2119.56	620
2121.01	624
2122.46	620
2123.91	636
2125.36	608
2126.8	632
2128.25	654
2129.7	652
2131.15	616
2132.6	646
2134.05	626
2135.49	646
2136.94	618
2138.39	630
2139.83	630
2141.28	634
2142.73	634
2144.17	640
2145.62	634
2147.06	656
2148.51	644
2149.95	658
2151.4	662
2152.84	642
2154.29	638
2155.73	630
2157.17	644
2158.62	648
2160.06	658
2161.5	650
2162.95	628
2164.39	634
2165.83	648
2167.27	648
2168.71	630
2170.15	642
2171.59	630
2173.04	658
2174.48	654
2175.92	660
2177.36	620
2178.79	624
2180.24	676
2181.67	656
2183.11	652
2184.55	642
2185.99	642
2187.43	646
2188.86	614
2190.3	648
2191.74	638
2193.18	638
2194.61	624
2196.05	636
2197.49	634
2198.92	606
2200.36	656
2201.79	634
2203.23	636
2204.66	644
2206.1	652
2207.53	626
2208.97	626
2210.4	654
2211.83	616
2213.27	636
2214.7	622
2216.13	656
2217.57	592
2219	628
2220.43	638
2221.86	624
2223.29	620
2224.72	610
2226.15	632
2227.59	586
2229.02	624
2230.45	628
2231.88	614
2233.31	604
2234.74	614
2236.16	638
2237.59	630
2239.02	612
2240.45	620
2241.88	626
2243.31	638
2244.73	590
2246.16	600
2247.59	626
2249.01	612
2250.44	634
2251.87	636
2253.29	616
2254.72	638
2256.15	608
2257.57	614
2259	620
2260.42	632
2261.84	612
2263.27	638
2264.69	634
2266.12	600
2267.54	624
2268.96	612
2270.39	652
2271.81	646
2273.23	610
2274.65	638
2276.07	626
2277.5	626
2278.92	622
2280.34	604
2281.76	638
2283.18	624
2284.6	670
2286.02	636
2287.44	624
2288.86	634
2290.28	636
2291.7	630
2293.12	648
2294.54	638
2295.95	632
2297.37	652
2298.79	628
2300.21	638
2301.62	626
2303.04	652
2304.46	638
2305.88	626
2307.29	656
2308.71	684
2310.12	662
2311.54	634
2312.95	652
2314.37	656
2315.78	656
2317.2	622
2318.61	662
2320.02	640
2321.44	658
2322.85	640
2324.27	680
2325.68	712
2327.09	710
2328.5	720
2329.92	696
2331.33	678
2332.74	698
2334.15	688
2335.56	694
2336.97	658
2338.38	670
2339.79	678
2341.2	674
2342.61	716
2344.02	690
2345.43	718
2346.84	678
2348.25	690
2349.66	724
2351.07	684
2352.48	706
2353.88	704
2355.29	690
2356.7	708
2358.11	710
2359.51	738
2360.92	712
2362.32	742
2363.73	738
2365.14	742
2366.54	720
2367.95	746
2369.35	732
2370.76	724
2372.16	746
2373.57	728
2374.97	740
2376.37	742
2377.78	734
2379.18	778
2380.58	764
2381.99	756
2383.39	758
2384.79	738
2386.19	762
2387.59	774
2389	790
2390.4	768
2391.8	764
2393.2	756
2394.6	750
2396	766
2397.4	768
2398.8	784
2400.2	752
2401.6	764
2403	778
2404.39	778
2405.79	778
2407.19	774
2408.59	776
2409.99	802
2411.38	794
2412.78	760
2414.18	782
2415.57	766
2416.97	782
2418.37	764
2419.76	772
2421.16	788
2422.55	792
2423.95	820
2425.34	784
2426.74	828
2428.13	758
2429.53	804
2430.92	786
2432.31	790
2433.71	762
2435.1	790
2436.49	820
2437.89	802
2439.28	794
2440.67	778
2442.06	772
2443.45	800
2444.85	792
2446.24	806
2447.63	804
2449.02	796
2450.41	786
2451.8	784
2453.19	812
2454.58	788
2455.97	776
2457.36	818
2458.75	798
2460.13	790
2461.52	812
2462.91	784
2464.3	814
2465.69	788
2467.07	780
2468.46	788
2469.85	772
2471.24	798
2472.62	790
2474.01	780
2475.39	778
2476.78	776
2478.16	782
2479.55	792
2480.94	778
2482.32	798
2483.7	802
2485.09	782
2486.47	794
2487.85	792
2489.24	794
2490.62	764
2492	792
2493.39	802
2494.77	796
2496.15	776
2497.53	800
2498.92	800
2500.3	784
2501.68	794
2503.06	770
2504.44	792
2505.82	760
2507.2	786
2508.58	796
2509.96	788
2511.34	788
2512.72	762
2514.1	802
2515.48	814
2516.85	764
2518.23	796
2519.61	774
2520.99	792
2522.37	792
2523.74	794
2525.12	808
2526.5	780
2527.87	796
2529.25	770
2530.63	792
2532	788
2533.38	822
2534.75	792
2536.13	792
2537.5	796
2538.88	810
2540.25	802
2541.62	810
2543	788
2544.37	796
2545.75	776
2547.12	788
2548.49	826
2549.86	770
2551.24	768
2552.61	780
2553.98	814
2555.35	798
2556.72	792
2558.09	800
2559.47	790
2560.84	792
2562.21	802
2563.57	798
2564.95	812
2566.32	780
2567.68	790
2569.05	796
2570.42	792
2571.79	796
2573.16	794
2574.53	810
2575.9	826
2577.26	790
2578.63	788
2580	794
2581.36	788
2582.73	772
2584.1	802
2585.46	760
2586.83	788
2588.19	806
2589.56	780
2590.93	800
2592.29	788
2593.66	806
2595.02	834
2596.39	782
2597.75	792
2599.11	800
2600.47	824
2601.84	788
2603.2	802
2604.56	812
2605.93	812
2607.29	794
2608.65	820
2610.01	830
2611.38	766
2612.74	828
2614.1	812
2615.46	840
2616.82	798
2618.18	792
2619.54	788
2620.9	804
2622.26	812
2623.62	794
2624.98	842
2626.34	816
2627.69	808
2629.05	810
2630.41	818
2631.77	792
2633.13	822
2634.48	832
2635.84	822
2637.2	838
2638.56	814
2639.91	836
2641.27	832
2642.62	816
2643.98	822
2645.33	816
2646.69	846
2648.05	822
2649.4	822
2650.75	822
2652.11	852
2653.46	838
2654.82	822
2656.17	820
2657.52	826
2658.88	832
2660.23	818
2661.58	832
2662.94	844
2664.29	798
2665.64	830
2666.99	850
2668.34	820
2669.69	850
2671.04	814
2672.39	834
2673.75	836
2675.09	822
2676.45	842
2677.79	832
2679.14	852
2680.49	838
2681.84	836
2683.19	808
2684.54	810
2685.89	842
2687.24	824
2688.58	828
2689.93	824
2691.28	832
2692.63	836
2693.97	836
2695.32	810
2696.67	844
2698.01	860
2699.36	814
2700.7	818
2702.05	820
2703.39	850
2704.74	818
2706.08	836
2707.43	836
2708.77	844
2710.12	828
2711.46	822
2712.8	848
2714.15	860
2715.49	822
2716.83	812
2718.17	848
2719.52	840
2720.86	868
2722.2	832
2723.54	838
2724.88	828
2726.22	854
2727.57	860
2728.91	850
2730.25	846
2731.59	868
2732.93	854
2734.27	818
2735.61	828
2736.95	858
2738.28	874
2739.62	884
2740.96	850
2742.3	868
2743.64	830
2744.98	836
2746.31	892
2747.65	844
2748.99	880
2750.33	862
2751.66	832
2753	836
2754.33	854
2755.67	858
2757.01	888
2758.34	850
2759.68	874
2761.01	862
2762.35	868
2763.68	878
2765.01	894
2766.35	872
2767.68	870
2769.02	892
2770.35	870
2771.68	858
2773.02	876
2774.35	874
2775.68	890
2777.01	862
2778.35	882
2779.68	898
2781.01	884
2782.34	850
2783.67	894
2785	856
2786.33	886
2787.66	890
2788.99	908
2790.32	890
2791.65	896
2792.98	918
2794.31	908
2795.64	900
2796.97	868
2798.3	930
2799.62	916
2800.95	892
2802.28	904
2803.61	914
2804.93	882
2806.26	948
2807.59	914
2808.91	928
2810.24	906
2811.57	896
2812.89	916
2814.22	916
2815.54	932
2816.87	928
2818.19	890
2819.52	904
2820.84	922
2822.17	932
2823.49	896
2824.81	906
2826.14	882
2827.46	920
2828.78	934
2830.11	944
2831.43	894
2832.75	922
2834.07	918
2835.39	916
2836.72	942
2838.04	944
2839.36	952
2840.68	930
2842	940
2843.32	942
2844.64	928
2845.96	928
2847.28	938
2848.6	958
2849.92	928
2851.24	962
2852.56	966
2853.88	968
2855.19	960
2856.51	950
2857.83	954
2859.15	966
2860.46	946
2861.78	976
2863.1	948
2864.42	946
2865.73	934
2867.05	958
2868.36	960
2869.68	980
2871	988
2872.31	986
2873.63	948
2874.94	962
2876.26	976
2877.57	976
2878.88	940
2880.2	1008
2881.51	976
2882.82	988
2884.14	948
2885.45	966
2886.76	976
2888.08	948
2889.39	962
2890.7	992
2892.01	994
2893.33	934
2894.64	978
2895.95	954
2897.26	962
2898.57	992
2899.88	972
2901.19	964
2902.5	994
2903.81	1004
2905.12	1004
2906.43	998
2907.74	968
2909.05	1024
2910.35	986
2911.66	984
2912.97	1000
2914.28	994
2915.59	992
2916.89	982
2918.2	1017.95
2919.51	997.898
2920.82	1021.33
2922.12	994.016
2923.43	985.288
2924.73	1005.76
2926.04	1022.9
2927.35	991.412
2928.65	985.014
2929.96	1007.8
2931.26	1027.44
2932.57	989.316
2933.87	1007.2
2935.17	975.672
2936.48	981.004
2937.78	1012.53
2939.09	1011.07
2940.39	1049.43
2941.69	1022.85
2943	1007.33
2944.3	1014.09
2945.6	1027.82
2946.9	1008.58
2948.2	999.423
2949.51	1009.15
2950.81	1030.16
2952.11	1004.83
2953.41	1027.32
2954.71	1038.57
2956.01	1023.78
2957.31	1016.23
2958.61	1022.01
2959.91	1025.64
2961.21	1047.85
2962.51	1028.46
2963.81	1035.97
2965.11	1032.62
2966.41	1039.7
2967.71	1039.03
2969.01	1022.43
2970.3	1030.53
2971.6	1056.33
2972.9	1046.59
2974.2	1061.42
2975.49	1051.59
2976.79	1048.2
2978.09	1051.47
2979.39	1049.66
2980.68	1040.21
2981.98	1066.3
2983.27	1056.76
2984.57	1060.14
2985.86	1081.32
2987.16	1069.24
2988.45	1064.97
2989.75	1090.74
2991.04	1065.41
2992.34	1020.94
2993.63	1048.68
2994.93	1097.44
2996.22	1077.36
2997.51	1100.83
2998.81	1080.44
3000.1	1063.39
3001.39	1093.68
3002.68	1083.19
3003.98	1101.28
3005.27	1075.72
3006.56	1094.51
3007.85	1081.17
3009.14	1069.71
3010.43	1103.08
3011.72	1112.16
3013.01	1081.73
3014.31	1078.43
3015.59	1106.91
3016.89	1121.33
3018.18	1097.57
3019.47	1088.51
3020.75	1096.06
3022.04	1117.33
3023.33	1114.91
3024.62	1117.96
3025.91	1100.27
3027.2	1116.27
3028.48	1105.36
3029.77	1116.29
3031.06	1126.08
3032.35	1129.93
3033.64	1115.4
3034.92	1126.91
3036.21	1126.82
3037.5	1121.44
3038.78	1132.82
3040.07	1133.92
3041.35	1151.27
3042.64	1144.44
3043.92	1133.12
3045.21	1140
3046.49	1142.47
3047.78	1118.35
3048.11	1110
3049.4	1104
3050.69	1168
3051.98	1154
3053.27	1112
3054.56	1162
3055.85	1156
3057.14	1168
3058.43	1148
3059.72	1156
3061.01	1134
3062.29	1150
3063.58	1152
3064.87	1130
3066.16	1158
3067.44	1156
3068.73	1178
3070.02	1136
3071.31	1168
3072.59	1196
3073.88	1172
3075.16	1154
3076.45	1164
3077.73	1190
3079.02	1192
3080.31	1158
3081.59	1170
3082.87	1188
3084.16	1212
3085.44	1200
3086.73	1204
3088.01	1160
3089.29	1172
3090.58	1206
3091.86	1194
3093.14	1224
3094.43	1176
3095.71	1214
3096.99	1188
3098.27	1218
3099.55	1178
3100.84	1218
3102.12	1192
3103.4	1210
3104.68	1182
3105.96	1194
3107.24	1218
3108.52	1206
3109.8	1176
3111.08	1248
3112.36	1256
3113.64	1238
3114.92	1234
3116.2	1238
3117.48	1230
3118.75	1212
3120.03	1234
3121.31	1242
3122.59	1232
3123.87	1230
3125.14	1244
3126.42	1250
3127.7	1266
3128.97	1238
3130.25	1244
3131.53	1220
3132.8	1282
3134.08	1276
3135.35	1228
3136.63	1256
3137.9	1270
3139.18	1318
3140.45	1286
3141.73	1268
3143	1268
3144.28	1256
3145.55	1248
3146.82	1278
3148.1	1254
3149.37	1296
3150.64	1288
3151.92	1322
3153.19	1318
3154.46	1316
3155.73	1304
3157.01	1286
3158.28	1310
3159.55	1320
3160.82	1334
3162.09	1300
3163.36	1320
3164.63	1318
3165.9	1324
3167.17	1342
3168.44	1290
3169.71	1302
3170.98	1316
3172.25	1330
3173.52	1334
3174.79	1326
3176.06	1326
3177.32	1288
3178.59	1310
3179.86	1328
3181.13	1318
3182.4	1356
3183.66	1344
3184.93	1328
3186.2	1332
3187.46	1330
3188.73	1358
3190	1376
3191.26	1284
3192.53	1336
3193.79	1330
3195.06	1332
3196.32	1356
3197.59	1350
3198.85	1370
3200.12	1328
3201.38	1342
3202.65	1380
3203.91	1338
3205.17	1390
3206.44	1392
3207.7	1380
3208.96	1390
3210.23	1316
3211.49	1374
3212.75	1324
3214.01	1390
3215.27	1332
3216.54	1386
3217.8	1370
3219.06	1354
3220.32	1340
3221.58	1350
3222.84	1384
3224.1	1344
3225.36	1370
3226.62	1340
3227.88	1388
3229.14	1418
3230.4	1378
3231.66	1372
3232.92	1394
3234.18	1372
3235.44	1428
3236.69	1392
3237.95	1350
3239.21	1410
3240.47	1374
3241.72	1390
3242.98	1380
3244.24	1326
3245.5	1416
3246.75	1386
3248.01	1402
3249.26	1400
3250.52	1424
3251.78	1400
3253.03	1458
3254.29	1408
3255.54	1402
3256.8	1414
3258.05	1438
3259.3	1418
3260.56	1440
3261.81	1454
3263.07	1420
3264.32	1442
3265.57	1424
3266.83	1420
3268.08	1464
3269.33	1470
3270.58	1408
3271.84	1460
3273.09	1452
3274.34	1488
3275.59	1474
3276.84	1464
3278.09	1434
3279.35	1454
3280.6	1446
3281.85	1470
3283.1	1450
3284.35	1484
3285.6	1478
3286.85	1498
3288.1	1452
3289.35	1488
3290.59	1472
3291.84	1432
3293.09	1466
3294.34	1508
3295.59	1488
3296.84	1544
3298.08	1476
3299.33	1502
3300.58	1482
3301.83	1534
3303.07	1506
3304.32	1542
3305.57	1536
3306.81	1530
3308.06	1538
3309.3	1542
3310.55	1540
3311.79	1520
3313.04	1518
3314.29	1540
3315.53	1516
3316.77	1536
3318.02	1530
3319.26	1544
3320.51	1556
3321.75	1566
3322.99	1550
3324.24	1552
3325.48	1568
3326.72	1572
3327.97	1526
3329.21	1538
3330.45	1594
3331.69	1556
3332.93	1616
3334.18	1556
3335.42	1578
3336.66	1560
3337.9	1600
3339.14	1556
3340.38	1584
3341.62	1568
3342.86	1550
3344.1	1576
3345.34	1564
3346.58	1568
3347.82	1624
3349.06	1618
3350.3	1566
3351.54	1560
3352.77	1582
3354.01	1560
3355.25	1626
3356.49	1592
3357.73	1626
3358.96	1580
3360.2	1592
3361.44	1568
3362.67	1596
3363.91	1632
3365.15	1590
3366.38	1620
3367.62	1584
3368.85	1644
3370.09	1582
3371.33	1598
3372.56	1576
3373.8	1606
3375.03	1600
3376.26	1588
3377.5	1590
3378.73	1626
3379.97	1648
3381.2	1614
3382.43	1576
3383.67	1650
3384.9	1598
3386.13	1680
3387.37	1638
3388.6	1658
3389.83	1648
3391.06	1632
3392.29	1640
3393.52	1622
3394.76	1666
3395.99	1672
3397.22	1602
3398.45	1624
3399.68	1660
3400.91	1698
3402.14	1620
3403.37	1684
3404.6	1658
3405.83	1650
3407.06	1624
3408.29	1648
3409.51	1698
3410.74	1650
3411.97	1700
3413.2	1682
3414.43	1686
3415.66	1706
3416.88	1716
3418.11	1694
3419.34	1690
3420.56	1722
3421.79	1722
3423.02	1698
3424.24	1680
3425.47	1710
3426.7	1686
3427.92	1722
3429.15	1712
3430.37	1732
3431.6	1714
3432.82	1728
3434.05	1742
3435.27	1768
3436.5	1732
3437.72	1766
3438.94	1776
3440.17	1712
3441.39	1764
3442.61	1754
3443.84	1794
3445.06	1764
3446.28	1790
3447.51	1778
3448.73	1760
3449.95	1784
3451.17	1774
3452.39	1784
3453.61	1804
3454.83	1820
3456.06	1762
3457.28	1784
3458.5	1820
3459.72	1808
3460.94	1808
3462.16	1836
3463.38	1808
3464.6	1808
3465.82	1820
3467.04	1804
3468.25	1824
3469.47	1836
3470.69	1826
3471.91	1822
3473.13	1804
3474.34	1838
3475.56	1862
3476.78	1822
3478	1798
3479.21	1842
3480.43	1816
3481.65	1844
3482.86	1842
3484.08	1830
3485.3	1844
3486.51	1842
3487.73	1852
3488.94	1842
3490.16	1802
3491.37	1872
3492.59	1804
3493.8	1870
3495.02	1888
3496.23	1812
3497.45	1838
3498.66	1816
3499.87	1846
3501.09	1852
3502.3	1852
3503.51	1854
3504.72	1868
3505.94	1896
3507.15	1830
3508.36	1820
3509.57	1808
3510.79	1830
3512	1870
3513.21	1906
3514.42	1842
3515.63	1846
3516.84	1854
3518.05	1824
3519.26	1872
3520.47	1862
3521.68	1868
3522.89	1846
3524.1	1854
3525.31	1836
3526.52	1842
3527.73	1876
3528.94	1824
3530.14	1848
3531.35	1850
3532.56	1852
3533.77	1838
3534.98	1842
3536.18	1880
3537.39	1852
3538.6	1838
3539.81	1904
3541.01	1894
3542.22	1878
3543.42	1886
3544.63	1872
3545.84	1904
3547.04	1864
3548.25	1874
3549.45	1846
3550.66	1866
3551.86	1900
3553.07	1888
3554.27	1884
3555.47	1906
3556.68	1920
3557.88	1898
3559.09	1946
3560.29	1940
3561.49	1926
3562.7	1920
3563.9	1902
3565.1	1920
3566.3	1912
3567.51	1926
3568.71	1914
3569.91	1898
3571.11	1964
3572.31	1922
3573.51	1906
3574.71	1958
3575.92	1948
3577.12	1920
3578.32	1950
3579.52	1940
3580.72	1990
3581.92	1978
3583.12	1998
3584.31	2026
3585.51	1964
3586.71	2032
3587.91	1972
3589.11	1958
3590.31	1966
3591.51	2006
3592.71	2002
3593.9	2000
3595.1	2030
3596.3	1996
3597.49	1996
3598.69	2022
3599.89	2014
3601.08	2024
3602.28	2028
3603.48	2018
3604.67	2018
3605.87	1996
3607.06	2048
3608.26	2046
3609.45	2018
3610.65	2094
3611.84	2076
3613.04	2036
3614.23	2032
3615.43	2084
3616.62	2068
3617.82	2064
3619.01	2074
3620.2	2052
3621.39	2042
3622.59	2100
3623.78	2078
3624.97	2084
3626.17	2034
3627.36	2086
3628.55	2110
3629.74	2110
3630.93	2074
3632.12	2100
3633.31	2052
3634.51	2044
3635.7	2084
3636.89	2102
3638.08	2088
3639.27	2086
3640.46	2144
3641.65	2098
3642.84	2112
3644.03	2098
3645.22	2052
3646.4	2136
3647.59	2106
3648.78	2128
3649.97	2096
3651.16	2148
3652.35	2018
3653.53	2104
3654.72	2070
3655.91	2118
3657.1	2082
3658.28	2136
3659.47	2124
3660.66	2080
3661.84	2080
3663.03	2124
3664.21	2084
3665.4	2074
3666.59	2096
3667.77	2136
3668.96	2104
3670.14	2142
3671.33	2124
3672.51	2090
3673.69	2098
3674.88	2120
3676.06	2074
3677.25	2102
3678.43	2108
3679.61	2106
3680.8	2152
3681.98	2102
3683.16	2054
3684.34	2050
3685.53	2092
3686.71	2128
3687.89	2130
3689.07	2120
3690.25	2148
3691.44	2144
3692.62	2114
3693.8	2090
3694.98	2134
3696.16	2156
3697.34	2102
3698.52	2128
3699.7	2158
3700.88	2112
3702.06	2178
3703.24	2156
3704.42	2158
3705.6	2152
3706.78	2148
3707.96	2162
3709.13	2166
3710.31	2172
3711.49	2144
3712.67	2146
3713.85	2176
3715.02	2162
3716.2	2156
3717.38	2186
3718.56	2132
3719.73	2178
3720.91	2204
3722.08	2158
3723.26	2186
3724.44	2174
3725.61	2184
3726.79	2240
3727.96	2248
3729.14	2224
3730.31	2202
3731.49	2240
3732.66	2260
3733.84	2186
3735.01	2254
3736.18	2198
3737.36	2254
3738.53	2254
3739.7	2268
3740.88	2212
3742.05	2210
3743.22	2278
3744.4	2276
3745.57	2266
3746.74	2296
3747.91	2268
3749.09	2280
3750.26	2252
3751.43	2258
3752.6	2292
3753.77	2318
3754.94	2292
3756.11	2262
3757.28	2300
3758.45	2232
3759.62	2318
3760.79	2304
3761.96	2324
3763.13	2318
3764.3	2274
3765.47	2286
3766.64	2320
3767.81	2324
3768.98	2322
3770.14	2328
3771.31	2320
3772.48	2338
3773.65	2310
3774.82	2384
3775.98	2362
3777.15	2334
3778.32	2372
3779.48	2328
3780.65	2310
3781.82	2344
3782.98	2350
3784.15	2390
3785.32	2342
3786.48	2362
3787.65	2342
3788.81	2360
3789.98	2334
3791.14	2272
3792.3	2342
3793.47	2346
3794.63	2320
3795.8	2388
3796.96	2290
3798.13	2308
3799.29	2292
3800.45	2342
3801.61	2346
3802.78	2356
3803.94	2284
3805.1	2372
3806.27	2306
3807.43	2358
3808.59	2364
3809.75	2370
3810.91	2342
3812.07	2394
3813.24	2338
3814.4	2338
3815.56	2376
3816.72	2356
3817.88	2324
3819.04	2370
3820.2	2340
3821.36	2388
3822.52	2382
3823.68	2374
3824.84	2330
3826	2306
3827.15	2390
3828.31	2396
3829.47	2384
3830.63	2350
3831.79	2302
3832.95	2360
3834.1	2346
3835.26	2304
3836.42	2326
3837.58	2346
3838.73	2406
3839.89	2366
3841.04	2398
3842.2	2386
3843.36	2328
3844.51	2328
3845.67	2350
3846.83	2378
3847.98	2374
3849.14	2384
3850.29	2348
3851.45	2414
3852.6	2386
3853.76	2378
3854.91	2376
3856.06	2388
3857.22	2380
3858.37	2400
3859.52	2364
3860.68	2404
3861.83	2378
3862.98	2376
3864.14	2430
3865.29	2410
3866.44	2430
3867.59	2382
3868.75	2422
3869.9	2414
3871.05	2448
3872.2	2416
3873.35	2430
3874.5	2408
3875.65	2458
3876.8	2438
3877.95	2372
3879.1	2444
3880.25	2468
3881.4	2434
3882.55	2426
3883.7	2454
3884.85	2478
3886	2508
3887.15	2450
3888.3	2464
3889.45	2492
3890.6	2504
3891.75	2468
3892.89	2452
3894.04	2526
3895.19	2518
3896.34	2488
3897.48	2486
3898.63	2490
3899.78	2456
3900.92	2496
3902.07	2534
3903.22	2522
3904.36	2560
3905.51	2546
3906.65	2552
3907.8	2524
3908.94	2536
3910.09	2542
3911.23	2540
3912.38	2560
3913.52	2556
3914.67	2516
3915.81	2528
3916.96	2548
3918.1	2554
3919.24	2524
3920.39	2570
3921.53	2574
3922.67	2556
3923.82	2532
3924.96	2558
3926.1	2610
3927.24	2564
3928.39	2564
3929.53	2576
3930.67	2580
3931.81	2584
3932.95	2590
3934.09	2488
3935.24	2562
3936.38	2540
3937.52	2568
3938.66	2644
3939.8	2522
3940.94	2554
3942.08	2568
3943.22	2582
3944.36	2550
3945.5	2592
3946.63	2532
3947.77	2544
3948.91	2570
3950.05	2542
3951.19	2586
3952.33	2572
3953.47	2608
3954.6	2544
3955.74	2582
3956.88	2564
3958.02	2554
3959.15	2610
3960.29	2570
3961.43	2570
3962.56	2554
3963.7	2570
3964.84	2528
3965.97	2594
3967.11	2570
3968.24	2586
3969.38	2596
3970.51	2630
3971.65	2556
3972.78	2586
3973.92	2620
3975.05	2518
3976.19	2534
3977.32	2602
3978.45	2556
3979.59	2598
3980.72	2522
3981.85	2584
3982.99	2590
3984.12	2586
3985.25	2596
3986.39	2532
3987.52	2596
3988.65	2608
3989.78	2608
3990.91	2650
3992.05	2624
3993.18	2590
3994.31	2620
3995.44	2608
3996.57	2590
3997.7	2584
3998.83	2640
3999.96	2658
