#Acq. time (s)=	20
#Accumulations=	2
#Range (cm-¹)=	50...4000
#Windows=	3
#Autofocus=	Off
#AutoExposure=	Off
#Spike filter=	Multiple accum.
#Delay time (s)=	0
#Binning=	1
#Readout mode=	Signal
#DeNoise=	Off
#ICS correction=	Off
#Dark correction=	Off
#Inst. Process=	Off
#Instrument=	LabRAM HR Evol
#Detector=	Syncerity OE
#Objective=	x100_VIS
#Grating=	600 (500nm)
#ND Filter=	100%
#Laser=	532nm_Edge
#Hole=	100.021
#Range=	Visible
#Project=	Omar
#Sample=	
#Site=	21-09-22
#Title=	 CN-Sastre
#Remark=	
#Date=	21.09.2022 12:44
#Acquired=	21.09.2022 12:44:05
51.0918	34
52.9354	50
54.7807	36
56.6235	46
58.4681	52
60.3102	88
62.154	114
63.9954	160
65.8385	178
67.6792	228
69.5216	282
71.3615	368
73.2032	472
75.0424	582
76.8834	642
78.7218	674
80.5621	812
82.3998	906
84.2393	970
86.0764	964
87.9152	1052
89.7515	1122
91.5874	1116
93.4251	1118
95.2603	1058
97.0973	1098
98.9318	1066
100.766	1050
102.602	1066
104.435	1094
106.27	1150
108.103	1094
109.936	1076
111.77	998
113.601	1074
115.433	1110
117.266	1078
119.096	1062
120.926	1058
122.758	1054
124.588	1042
126.417	1054
128.246	1032
130.076	1030
131.904	1026
133.732	1002
135.561	1020
137.388	1032
139.215	1030
141.041	1042
142.869	1002
144.695	998
146.52	1036
148.345	1006
150.171	1020
151.995	968
153.819	1010
155.642	986
157.465	970
159.29	996
161.112	988
162.934	992
164.756	994
166.577	970
168.398	968
170.219	950
172.041	966
173.861	974
175.68	924
177.499	936
179.318	952
181.137	940
182.955	950
184.772	964
186.592	978
188.409	950
190.225	938
192.042	924
193.857	974
195.673	948
197.488	940
199.303	928
201.118	938
202.932	958
204.746	924
206.559	924
208.372	954
210.185	904
211.997	890
213.809	920
215.621	916
217.432	904
219.243	934
221.054	892
222.864	864
224.674	902
226.483	890
228.293	868
230.101	874
231.91	880
233.718	874
235.524	904
237.331	884
239.138	888
240.945	920
242.751	914
244.557	842
246.363	888
248.168	912
249.971	900
251.776	884
253.58	884
255.384	856
257.188	872
258.991	876
260.792	908
262.594	888
264.396	874
266.198	846
268	886
269.799	870
271.599	912
273.4	884
275.2	878
277	872
278.797	862
280.596	858
282.395	910
284.193	892
285.989	886
287.786	866
289.584	870
291.378	868
293.175	862
294.971	900
296.765	878
298.561	884
300.356	864
302.148	890
303.943	902
305.737	864
307.529	868
309.322	918
311.115	866
312.906	884
314.698	898
316.49	900
318.28	900
320.071	902
321.86	870
323.651	902
325.441	872
327.229	866
329.019	870
330.806	862
332.595	856
334.381	890
336.17	840
337.955	844
339.743	896
341.528	882
343.315	852
345.099	862
346.885	890
348.669	890
350.455	856
352.238	844
354.022	876
355.805	856
357.589	856
359.371	862
361.154	870
362.935	868
364.718	878
366.498	866
368.278	866
370.06	896
371.839	840
373.62	868
375.398	876
377.177	900
378.956	884
380.734	888
382.513	896
384.29	916
386.067	854
387.845	884
389.621	884
391.396	934
393.173	880
394.948	884
396.723	876
398.499	872
400.273	894
402.046	878
403.819	884
405.594	852
407.366	872
409.138	874
410.91	874
412.683	884
414.454	890
416.225	852
417.995	892
419.768	900
421.537	878
423.307	852
425.076	852
426.844	896
428.615	890
430.382	866
432.15	876
433.917	880
435.684	890
437.451	874
439.219	892
440.985	886
442.751	886
444.516	898
446.281	910
448.045	904
449.81	892
451.574	848
453.337	888
455.102	900
456.865	920
458.628	930
460.39	910
462.152	884
463.913	886
465.674	884
467.435	884
469.196	958
470.956	916
472.716	900
474.475	892
476.234	906
477.993	890
479.752	888
481.51	858
483.268	872
485.025	868
486.782	892
488.539	880
490.295	872
492.051	870
493.807	860
495.563	870
497.316	864
499.07	912
500.825	880
502.579	848
504.333	842
506.086	876
507.839	876
509.592	872
511.344	862
513.094	900
514.846	892
516.597	832
518.349	880
520.099	876
521.85	892
523.598	904
525.347	886
527.097	910
528.846	898
530.595	936
532.341	922
534.089	944
535.837	948
537.584	998
539.329	1024
541.076	1000
542.822	1038
544.568	1080
546.312	1056
548.057	1100
549.802	1104
551.545	1090
553.289	1104
555.033	1160
556.775	1138
558.518	1130
560.261	1126
562.002	1120
563.744	1136
565.487	1168
567.226	1130
568.968	1098
570.709	1108
572.447	1122
574.188	1076
575.926	1076
577.665	1050
579.405	1028
581.142	1082
582.88	1056
584.617	1012
586.355	1002
588.091	1016
589.828	1014
591.565	962
593.3	956
595.036	982
596.77	988
598.506	958
600.239	930
601.974	928
603.707	940
605.442	960
607.174	926
608.905	912
610.639	880
612.37	906
614.103	870
615.833	866
617.565	882
619.295	908
621.026	874
622.755	848
624.484	868
626.215	864
627.943	846
629.67	836
631.4	822
633.127	842
634.856	844
636.582	836
638.308	814
640.036	842
641.762	852
643.487	820
645.214	754
646.938	816
648.662	828
650.386	818
652.112	810
653.835	830
655.558	836
657.282	828
659.005	798
660.726	800
662.448	810
664.171	772
665.892	734
667.613	756
669.333	720
671.053	742
672.774	692
674.494	698
676.213	688
677.931	702
679.649	686
681.369	664
683.087	646
684.804	652
686.521	622
688.238	632
689.954	618
691.67	610
693.386	578
695.103	566
696.818	580
698.533	588
700.247	590
701.961	582
703.675	542
705.389	550
707.102	564
708.814	524
710.527	556
712.239	508
713.951	536
715.662	500
717.373	502
719.084	524
720.795	532
722.505	532
724.215	534
725.924	520
727.633	532
729.342	504
731.051	522
732.759	518
734.467	522
736.174	498
737.882	496
739.589	532
741.295	520
742.999	500
744.705	488
746.411	462
748.116	492
749.821	520
751.526	514
753.23	502
754.934	500
756.636	526
758.34	514
760.043	516
761.745	524
763.448	544
765.148	534
766.85	530
768.551	534
770.252	506
771.953	530
773.652	528
775.352	546
777.052	558
778.751	546
780.448	532
782.147	540
783.846	556
785.544	546
787.24	534
788.938	554
790.635	540
792.33	516
794.027	526
795.723	534
797.417	496
799.113	498
800.808	520
802.501	508
804.196	502
805.89	520
807.582	488
809.276	520
810.968	504
812.661	492
814.354	486
816.044	452
817.736	498
819.426	468
821.118	480
822.807	456
824.498	474
826.186	462
827.877	472
829.565	458
831.254	432
832.942	452
834.631	440
836.317	442
838.006	414
839.692	454
841.38	440
843.065	432
844.752	412
846.437	438
848.123	422
849.808	424
851.493	404
853.177	408
854.86	388
856.545	404
858.228	444
859.912	428
861.594	436
863.276	420
864.959	408
866.64	388
868.321	408
870.003	418
871.683	412
873.363	392
875.044	416
876.723	412
878.402	422
880.083	408
881.761	418
883.439	398
885.116	408
886.795	432
888.472	418
890.149	420
891.825	426
893.503	422
895.179	450
896.854	404
898.529	406
900.204	424
901.88	426
903.555	436
905.228	456
906.902	430
908.575	436
910.25	462
911.922	468
913.595	454
915.266	480
916.938	440
918.609	478
920.28	476
921.951	476
923.623	472
925.293	460
926.963	492
928.633	492
930.302	502
931.97	490
933.639	484
935.307	512
936.975	528
938.642	506
940.31	506
941.977	548
943.643	528
945.31	530
946.976	526
948.641	538
950.307	552
951.972	516
953.636	534
955.301	556
956.965	538
958.629	510
960.292	556
961.955	556
963.618	534
965.279	516
966.941	532
968.603	510
970.265	518
971.926	540
973.587	514
975.248	532
976.908	556
978.566	542
980.226	590
981.886	568
983.545	566
985.204	596
986.86	576
988.519	586
990.177	576
991.834	564
993.491	580
995.147	554
996.803	586
998.46	588
1000.12	584
1001.77	562
1003.43	576
1005.08	576
1006.73	562
1008.39	602
1010.04	606
1011.7	622
1013.35	602
1015	638
1016.65	646
1018.3	626
1019.96	656
1021.61	630
1023.26	660
1024.91	672
1026.56	702
1028.21	676
1029.86	680
1031.51	690
1033.16	682
1034.81	714
1036.46	728
1038.1	688
1039.75	736
1041.4	744
1043.05	762
1044.69	768
1046.34	766
1047.99	800
1049.63	770
1051.28	816
1052.92	804
1054.57	802
1056.21	816
1057.86	826
1059.5	820
1061.14	862
1062.79	840
1064.43	900
1066.07	884
1067.72	902
1069.36	904
1071	918
1072.64	974
1074.28	928
1075.92	944
1077.57	946
1079.2	1020
1080.84	974
1082.48	974
1084.12	1036
1085.76	1020
1087.4	992
1089.04	1032
1090.68	1016
1092.32	1064
1093.95	1048
1095.59	1036
1097.22	1036
1098.86	1032
1100.5	1036
1102.13	1022
1103.77	1032
1105.4	1002
1107.04	996
1108.67	1004
1110.31	920
1111.94	956
1113.58	928
1115.21	936
1116.84	894
1118.47	894
1120.1	870
1121.74	848
1123.37	840
1125	822
1126.63	784
1128.26	796
1129.89	796
1131.52	764
1133.15	760
1134.78	736
1136.41	724
1138.04	718
1139.67	726
1141.3	728
1142.92	696
1144.55	700
1146.18	694
1147.8	668
1149.43	672
1151.06	624
1152.68	662
1154.31	596
1155.93	652
1157.56	630
1159.18	636
1160.81	598
1162.43	576
1164.06	582
1165.68	564
1167.3	582
1168.93	550
1170.55	554
1172.17	516
1173.79	558
1175.41	560
1177.03	532
1178.66	556
1180.28	532
1181.9	510
1183.52	502
1185.14	506
1186.75	478
1188.37	512
1189.99	506
1191.61	514
1193.23	478
1194.85	508
1196.46	486
1198.08	486
1199.7	480
1201.31	466
1202.93	482
1204.55	430
1206.16	484
1207.78	434
1209.39	458
1211.01	450
1212.62	440
1214.24	450
1215.85	422
1217.46	426
1219.08	408
1220.69	432
1222.3	426
1223.91	426
1225.53	420
1227.14	414
1228.75	382
1230.36	406
1231.97	422
1233.58	418
1235.19	422
1236.8	408
1238.41	416
1240.02	394
1241.63	410
1243.23	386
1244.84	418
1246.45	438
1248.06	424
1249.67	448
1251.27	430
1252.88	424
1254.48	428
1256.09	406
1257.7	414
1259.3	408
1260.91	420
1262.51	414
1264.12	410
1265.72	424
1267.32	406
1268.93	416
1270.53	438
1272.13	420
1273.73	420
1275.34	448
1276.94	426
1278.54	440
1280.14	458
1281.74	452
1283.35	474
1284.94	474
1286.54	490
1288.15	465
1289.74	440
1291.34	468
1292.94	488
1294.54	502
1296.14	454
1297.74	466
1299.33	490
1300.93	494
1302.53	498
1304.12	492
1305.72	494
1307.32	516
1308.91	528
1310.51	536
1312.1	510
1313.7	544
1315.29	550
1316.89	556
1318.48	570
1320.07	592
1321.67	584
1323.26	618
1324.85	610
1326.45	600
1328.04	638
1329.63	650
1331.22	644
1332.81	686
1334.4	662
1335.99	676
1337.58	716
1339.17	690
1340.77	704
1342.35	702
1343.94	758
1345.53	752
1347.12	744
1348.71	704
1350.3	698
1351.88	710
1353.47	708
1355.06	704
1356.64	674
1358.23	662
1359.82	666
1361.4	698
1362.99	692
1364.57	626
1366.16	634
1367.74	636
1369.33	624
1370.91	594
1372.49	580
1374.08	562
1375.66	550
1377.24	552
1378.82	554
1380.41	532
1381.99	514
1383.57	524
1385.15	524
1386.73	522
1388.31	524
1389.89	526
1391.47	498
1393.05	502
1394.63	490
1396.21	482
1397.79	510
1399.37	476
1400.95	452
1402.52	480
1404.1	458
1405.68	456
1407.25	446
1408.83	446
1410.41	448
1411.98	448
1413.56	454
1415.13	454
1416.71	436
1418.29	460
1419.86	426
1421.43	448
1423.01	450
1424.58	436
1426.15	444
1427.73	466
1429.3	444
1430.87	440
1432.44	446
1434.02	426
1435.59	440
1437.16	464
1438.73	442
1440.3	448
1441.87	442
1443.44	434
1445.01	438
1446.58	408
1448.15	412
1449.72	416
1451.29	424
1452.85	414
1454.42	432
1455.99	442
1457.56	426
1459.12	422
1460.69	404
1462.26	420
1463.82	442
1465.39	426
1466.95	438
1468.52	430
1470.08	428
1471.65	452
1473.21	432
1474.78	428
1476.34	444
1477.9	422
1479.47	448
1481.03	446
1482.59	420
1484.16	446
1485.72	406
1487.28	430
1488.84	430
1490.4	430
1491.96	446
1493.52	426
1495.08	434
1496.64	456
1498.2	440
1499.76	442
1501.32	450
1502.88	446
1504.44	438
1506	432
1507.55	464
1509.11	468
1510.67	450
1512.22	476
1513.78	404
1515.34	484
1516.89	458
1518.45	474
1520.01	470
1521.56	442
1523.11	466
1524.67	450
1526.22	466
1527.78	492
1529.33	474
1530.88	490
1532.44	504
1533.99	484
1535.54	496
1537.09	510
1538.65	512
1540.2	504
1541.75	544
1543.3	528
1544.85	542
1546.4	520
1547.95	544
1549.5	574
1551.05	590
1552.6	598
1554.15	574
1555.7	600
1557.25	624
1558.79	664
1560.34	670
1561.89	674
1563.43	718
1564.98	696
1566.53	714
1568.08	712
1569.62	724
1571.17	762
1572.71	776
1574.26	772
1575.8	778
1577.35	786
1578.89	754
1580.43	762
1581.98	766
1583.52	746
1585.06	760
1586.61	726
1588.15	704
1589.69	706
1591.23	660
1592.77	690
1594.32	678
1595.86	652
1597.4	640
1598.94	626
1600.48	632
1602.02	620
1603.56	648
1605.1	612
1606.64	615.928
1608.18	605.777
1609.71	599.595
1611.25	578.394
1612.79	564.516
1614.33	554.522
1615.86	571.072
1617.4	521.507
1618.94	538.691
1620.47	533.816
1622.01	506.344
1623.55	501.828
1625.08	503.002
1626.62	489.995
1628.15	495.356
1629.69	472.048
1631.22	495.236
1632.75	475.041
1634.29	465.62
1635.82	472.114
1637.35	463.666
1638.89	465.502
1640.42	441.928
1641.95	455.105
1643.48	439.103
1645.02	430.377
1646.55	471.021
1648.08	412.445
1649.61	431.109
1651.14	434.031
1652.67	437.548
1654.2	443.569
1655.73	466.815
1657.26	452.472
1658.79	428.64
1660.32	436.827
1661.84	447.771
1663.37	439.638
1664.9	439.112
1666.43	448.376
1667.96	454.42
1669.48	433.382
1671.01	451.753
1672.54	445.51
1674.06	442.07
1675.59	435.765
1677.11	448.401
1678.64	435.941
1680.16	434.646
1681.69	455.057
1683.21	450.113
1684.74	459.612
1686.26	444.828
1687.79	446.113
1689.31	437.654
1690.83	459.019
1692.35	445.075
1693.88	450.307
1695.4	423.472
1696.92	454.726
1698.44	465.283
1699.96	471.038
1701.48	457.604
1703.01	473.539
1704.53	459.922
1706.05	456.656
1707.57	442.549
1709.09	457.585
1710.6	459.05
1712.12	466.421
1713.64	451.57
1715.16	462.023
1716.68	475.717
1718.2	487.154
1719.71	462.439
1721.23	456.183
1722.75	446.162
1724.27	474.32
1725.78	475.502
1727.3	458.034
1728.81	464.236
1730.33	485.735
1731.84	481.154
1733.36	480.974
1734.88	488.888
1736.39	497.719
1737.9	484.945
1739.42	466.989
1740.93	487.898
1742.44	475.837
1743.96	485.533
1745.47	484.546
1746.98	478.265
1748.49	489.217
1750.01	499.212
1751.52	502.461
1753.03	494.642
1754.54	474.626
1756.05	493.974
1757.56	493.476
1757.63	494
1759.14	484
1760.66	482
1762.18	496
1763.69	488
1765.21	488
1766.72	498
1768.24	508
1769.75	494
1771.27	470
1772.78	480
1774.3	488
1775.81	506
1777.32	478
1778.84	516
1780.35	484
1781.86	494
1783.38	496
1784.89	498
1786.4	498
1787.91	498
1789.42	518
1790.93	486
1792.44	504
1793.95	490
1795.47	494
1796.98	508
1798.48	508
1799.99	494
1801.5	526
1803.01	500
1804.52	518
1806.03	470
1807.54	500
1809.04	480
1810.55	526
1812.06	516
1813.57	522
1815.07	484
1816.58	518
1818.08	486
1819.59	476
1821.09	486
1822.6	478
1824.11	492
1825.61	512
1827.11	498
1828.62	496
1830.12	504
1831.63	494
1833.13	488
1834.63	488
1836.13	508
1837.64	504
1839.14	518
1840.64	494
1842.14	496
1843.64	534
1845.14	526
1846.64	500
1848.14	480
1849.64	488
1851.14	498
1852.64	502
1854.14	482
1855.64	492
1857.14	484
1858.64	510
1860.14	508
1861.64	518
1863.13	476
1864.63	476
1866.13	478
1867.63	480
1869.12	514
1870.62	520
1872.11	508
1873.61	522
1875.1	494
1876.6	506
1878.09	512
1879.59	490
1881.08	486
1882.58	470
1884.07	504
1885.56	480
1887.06	486
1888.55	472
1890.04	520
1891.54	494
1893.03	500
1894.52	490
1896.01	516
1897.5	516
1898.99	478
1900.48	508
1901.97	528
1903.46	504
1904.96	516
1906.44	516
1907.93	510
1909.42	494
1910.91	502
1912.4	514
1913.89	496
1915.38	504
1916.86	514
1918.35	534
1919.84	512
1921.32	514
1922.81	512
1924.3	502
1925.78	502
1927.27	520
1928.76	504
1930.24	510
1931.72	520
1933.21	506
1934.69	508
1936.18	484
1937.66	522
1939.15	528
1940.63	510
1942.11	500
1943.59	502
1945.08	504
1946.56	512
1948.04	510
1949.52	508
1951	514
1952.48	492
1953.97	520
1955.45	506
1956.93	500
1958.41	502
1959.89	502
1961.37	516
1962.85	496
1964.32	492
1965.8	488
1967.28	508
1968.76	522
1970.24	506
1971.71	512
1973.19	518
1974.67	508
1976.15	484
1977.62	488
1979.1	518
1980.57	516
1982.05	486
1983.53	480
1985	504
1986.48	502
1987.95	516
1989.42	478
1990.9	500
1992.37	498
1993.85	530
1995.32	494
1996.79	508
1998.26	510
1999.74	500
2001.21	506
2002.68	494
2004.15	488
2005.62	480
2007.09	490
2008.56	518
2010.03	498
2011.51	512
2012.98	508
2014.44	496
2015.92	512
2017.38	506
2018.85	482
2020.32	480
2021.79	502
2023.26	484
2024.73	512
2026.19	512
2027.66	504
2029.13	518
2030.59	498
2032.06	514
2033.53	510
2034.99	502
2036.46	506
2037.92	480
2039.39	508
2040.85	494
2042.32	526
2043.78	504
2045.25	506
2046.71	524
2048.17	532
2049.64	514
2051.1	524
2052.56	486
2054.02	514
2055.49	516
2056.95	502
2058.41	510
2059.87	504
2061.33	524
2062.79	496
2064.25	502
2065.71	514
2067.17	520
2068.63	504
2070.09	526
2071.55	504
2073.01	476
2074.47	512
2075.93	510
2077.39	514
2078.84	488
2080.3	520
2081.76	500
2083.22	506
2084.67	506
2086.13	506
2087.59	508
2089.04	514
2090.5	496
2091.95	500
2093.41	530
2094.86	484
2096.32	524
2097.77	498
2099.23	494
2100.68	522
2102.13	518
2103.59	482
2105.04	478
2106.49	498
2107.95	518
2109.4	504
2110.85	490
2112.3	520
2113.75	498
2115.21	488
2116.66	520
2118.11	506
2119.56	496
2121.01	510
2122.46	494
2123.91	514
2125.36	490
2126.8	518
2128.25	492
2129.7	494
2131.15	516
2132.6	512
2134.05	512
2135.49	498
2136.94	494
2138.39	508
2139.83	502
2141.28	516
2142.73	482
2144.17	504
2145.62	530
2147.06	486
2148.51	502
2149.95	510
2151.4	488
2152.84	500
2154.29	500
2155.73	508
2157.17	488
2158.62	492
2160.06	510
2161.5	502
2162.95	516
2164.39	496
2165.83	518
2167.27	510
2168.71	494
2170.15	512
2171.59	504
2173.04	500
2174.48	518
2175.92	480
2177.36	524
2178.79	498
2180.24	530
2181.67	504
2183.11	518
2184.55	520
2185.99	538
2187.43	524
2188.86	498
2190.3	504
2191.74	508
2193.18	518
2194.61	520
2196.05	486
2197.49	510
2198.92	500
2200.36	498
2201.79	496
2203.23	498
2204.66	498
2206.1	524
2207.53	506
2208.97	480
2210.4	500
2211.83	518
2213.27	494
2214.7	530
2216.13	504
2217.57	548
2219	506
2220.43	516
2221.86	472
2223.29	484
2224.72	478
2226.15	488
2227.59	482
2229.02	500
2230.45	470
2231.88	498
2233.31	486
2234.74	476
2236.16	498
2237.59	488
2239.02	484
2240.45	500
2241.88	476
2243.31	494
2244.73	472
2246.16	496
2247.59	476
2249.01	484
2250.44	480
2251.87	490
2253.29	478
2254.72	502
2256.15	494
2257.57	502
2259	476
2260.42	466
2261.84	486
2263.27	498
2264.69	484
2266.12	504
2267.54	496
2268.96	480
2270.39	480
2271.81	500
2273.23	480
2274.65	466
2276.07	504
2277.5	490
2278.92	488
2280.34	476
2281.76	476
2283.18	514
2284.6	496
2286.02	474
2287.44	506
2288.86	476
2290.28	520
2291.7	492
2293.12	506
2294.54	508
2295.95	466
2297.37	492
2298.79	516
2300.21	500
2301.62	506
2303.04	488
2304.46	518
2305.88	514
2307.29	518
2308.71	500
2310.12	514
2311.54	528
2312.95	504
2314.37	504
2315.78	510
2317.2	498
2318.61	502
2320.02	480
2321.44	500
2322.85	538
2324.27	508
2325.68	526
2327.09	570
2328.5	548
2329.92	562
2331.33	510
2332.74	492
2334.15	544
2335.56	484
2336.97	530
2338.38	542
2339.79	534
2341.2	536
2342.61	534
2344.02	524
2345.43	518
2346.84	532
2348.25	550
2349.66	550
2351.07	534
2352.48	548
2353.88	538
2355.29	546
2356.7	530
2358.11	560
2359.51	552
2360.92	530
2362.32	556
2363.73	572
2365.14	544
2366.54	566
2367.95	534
2369.35	576
2370.76	544
2372.16	586
2373.57	556
2374.97	576
2376.37	542
2377.78	564
2379.18	554
2380.58	582
2381.99	580
2383.39	568
2384.79	556
2386.19	558
2387.59	558
2389	588
2390.4	572
2391.8	564
2393.2	572
2394.6	586
2396	558
2397.4	570
2398.8	588
2400.2	572
2401.6	604
2403	574
2404.39	574
2405.79	600
2407.19	562
2408.59	560
2409.99	598
2411.38	588
2412.78	584
2414.18	580
2415.57	582
2416.97	588
2418.37	590
2419.76	574
2421.16	588
2422.55	606
2423.95	580
2425.34	574
2426.74	620
2428.13	606
2429.53	596
2430.92	608
2432.31	586
2433.71	606
2435.1	592
2436.49	578
2437.89	610
2439.28	596
2440.67	598
2442.06	604
2443.45	588
2444.85	584
2446.24	626
2447.63	614
2449.02	580
2450.41	598
2451.8	604
2453.19	582
2454.58	604
2455.97	598
2457.36	586
2458.75	564
2460.13	550
2461.52	604
2462.91	588
2464.3	598
2465.69	620
2467.07	608
2468.46	598
2469.85	586
2471.24	596
2472.62	598
2474.01	618
2475.39	596
2476.78	588
2478.16	596
2479.55	590
2480.94	564
2482.32	612
2483.7	588
2485.09	596
2486.47	614
2487.85	594
2489.24	568
2490.62	596
2492	604
2493.39	600
2494.77	608
2496.15	564
2497.53	596
2498.92	560
2500.3	594
2501.68	594
2503.06	590
2504.44	582
2505.82	584
2507.2	580
2508.58	606
2509.96	582
2511.34	582
2512.72	592
2514.1	602
2515.48	590
2516.85	584
2518.23	604
2519.61	584
2520.99	552
2522.37	608
2523.74	594
2525.12	586
2526.5	606
2527.87	588
2529.25	572
2530.63	590
2532	618
2533.38	584
2534.75	602
2536.13	594
2537.5	586
2538.88	616
2540.25	604
2541.62	602
2543	590
2544.37	606
2545.75	606
2547.12	616
2548.49	594
2549.86	572
2551.24	564
2552.61	612
2553.98	580
2555.35	590
2556.72	598
2558.09	562
2559.47	596
2560.84	590
2562.21	604
2563.57	624
2564.95	576
2566.32	572
2567.68	582
2569.05	600
2570.42	578
2571.79	568
2573.16	588
2574.53	598
2575.9	578
2577.26	570
2578.63	608
2580	592
2581.36	626
2582.73	568
2584.1	598
2585.46	628
2586.83	600
2588.19	596
2589.56	572
2590.93	588
2592.29	618
2593.66	570
2595.02	610
2596.39	564
2597.75	578
2599.11	590
2600.47	608
2601.84	588
2603.2	622
2604.56	598
2605.93	604
2607.29	572
2608.65	596
2610.01	636
2611.38	610
2612.74	590
2614.1	610
2615.46	596
2616.82	622
2618.18	612
2619.54	628
2620.9	588
2622.26	608
2623.62	602
2624.98	624
2626.34	582
2627.69	640
2629.05	596
2630.41	638
2631.77	632
2633.13	598
2634.48	626
2635.84	612
2637.2	646
2638.56	612
2639.91	634
2641.27	650
2642.62	626
2643.98	622
2645.33	620
2646.69	668
2648.05	620
2649.4	626
2650.75	632
2652.11	650
2653.46	622
2654.82	618
2656.17	638
2657.52	662
2658.88	638
2660.23	636
2661.58	648
2662.94	648
2664.29	634
2665.64	648
2666.99	658
2668.34	678
2669.69	646
2671.04	638
2672.39	638
2673.75	634
2675.09	642
2676.45	638
2677.79	670
2679.14	666
2680.49	666
2681.84	640
2683.19	670
2684.54	656
2685.89	646
2687.24	672
2688.58	664
2689.93	634
2691.28	660
2692.63	686
2693.97	706
2695.32	664
2696.67	670
2698.01	662
2699.36	668
2700.7	700
2702.05	686
2703.39	660
2704.74	670
2706.08	642
2707.43	668
2708.77	668
2710.12	660
2711.46	690
2712.8	692
2714.15	686
2715.49	672
2716.83	716
2718.17	694
2719.52	688
2720.86	692
2722.2	680
2723.54	656
2724.88	698
2726.22	646
2727.57	684
2728.91	642
2730.25	666
2731.59	692
2732.93	656
2734.27	656
2735.61	636
2736.95	660
2738.28	656
2739.62	654
2740.96	624
2742.3	614
2743.64	632
2744.98	646
2746.31	628
2747.65	654
2748.99	656
2750.33	678
2751.66	656
2753	664
2754.33	636
2755.67	654
2757.01	634
2758.34	674
2759.68	630
2761.01	638
2762.35	660
2763.68	652
2765.01	654
2766.35	658
2767.68	652
2769.02	646
2770.35	642
2771.68	630
2773.02	642
2774.35	662
2775.68	636
2777.01	650
2778.35	670
2779.68	624
2781.01	644
2782.34	622
2783.67	662
2785	668
2786.33	644
2787.66	620
2788.99	652
2790.32	680
2791.65	654
2792.98	678
2794.31	660
2795.64	648
2796.97	656
2798.3	630
2799.62	662
2800.95	638
2802.28	654
2803.61	650
2804.93	692
2806.26	682
2807.59	652
2808.91	664
2810.24	662
2811.57	662
2812.89	676
2814.22	662
2815.54	674
2816.87	644
2818.19	672
2819.52	640
2820.84	682
2822.17	684
2823.49	652
2824.81	660
2826.14	666
2827.46	676
2828.78	650
2830.11	662
2831.43	686
2832.75	672
2834.07	638
2835.39	678
2836.72	638
2838.04	700
2839.36	662
2840.68	692
2842	686
2843.32	674
2844.64	686
2845.96	670
2847.28	718
2848.6	670
2849.92	698
2851.24	682
2852.56	658
2853.88	680
2855.19	686
2856.51	668
2857.83	664
2859.15	674
2860.46	706
2861.78	692
2863.1	684
2864.42	720
2865.73	690
2867.05	680
2868.36	678
2869.68	678
2871	684
2872.31	698
2873.63	644
2874.94	684
2876.26	718
2877.57	684
2878.88	700
2880.2	724
2881.51	704
2882.82	690
2884.14	704
2885.45	700
2886.76	680
2888.08	702
2889.39	724
2890.7	698
2892.01	680
2893.33	698
2894.64	700
2895.95	674
2897.26	720
2898.57	698
2899.88	716
2901.19	708
2902.5	702
2903.81	708
2905.12	704
2906.43	696
2907.74	732
2909.05	716
2910.35	686
2911.66	718
2912.97	718
2914.28	706
2915.59	702
2916.89	700
2918.2	723.974
2919.51	711.978
2920.82	697.894
2922.12	736.361
2923.43	729.506
2924.73	748.02
2926.04	713.76
2927.35	725.995
2928.65	698.408
2929.96	731.851
2931.26	721.2
2932.57	702.395
2933.87	732.882
2935.17	735.357
2936.48	733.969
2937.78	681.507
2939.09	710.934
2940.39	754.99
2941.69	747.941
2943	733.244
2944.3	720.281
2945.6	739.978
2946.9	746.519
2948.2	725.069
2949.51	735.989
2950.81	734.704
2952.11	737.062
2953.41	718.324
2954.71	718.112
2956.01	729.758
2957.31	725.783
2958.61	745.567
2959.91	727.786
2961.21	722.035
2962.51	734.32
2963.81	732.89
2965.11	727.13
2966.41	747.136
2967.71	744.835
2969.01	758.052
2970.3	739.494
2971.6	731.965
2972.9	746.852
2974.2	743.124
2975.49	760.307
2976.79	720.54
2978.09	712.896
2979.39	747.578
2980.68	735.04
2981.98	754.74
2983.27	750.108
2984.57	745.023
2985.86	731.36
2987.16	773.455
2988.45	752.75
2989.75	766.182
2991.04	750.645
2992.34	746.773
2993.63	752.39
2994.93	748.255
2996.22	745.683
2997.51	743.03
2998.81	748.171
3000.1	745.415
3001.39	766.036
3002.68	760.855
3003.98	766.049
3005.27	767.98
3006.56	760.862
3007.85	750.237
3009.14	755.954
3010.43	757.257
3011.72	751.558
3013.01	770.564
3014.31	747.154
3015.59	755.222
3016.89	741.758
3018.18	766.752
3019.47	768.639
3020.75	765.746
3022.04	773.016
3023.33	763.196
3024.62	753.033
3025.91	758
3027.2	764.605
3028.48	761.766
3029.77	772.245
3031.06	773.594
3032.35	800.404
3033.64	779.166
3034.92	762.082
3036.21	793.935
3037.5	783.514
3038.78	754.336
3040.07	769.155
3041.35	780.455
3042.64	797.16
3043.92	780.611
3045.21	779.854
3046.49	779.478
3047.78	769.094
3048.11	766
3049.4	788
3050.69	782
3051.98	766
3053.27	754
3054.56	776
3055.85	786
3057.14	804
3058.43	796
3059.72	752
3061.01	800
3062.29	802
3063.58	796
3064.87	794
3066.16	786
3067.44	812
3068.73	784
3070.02	792
3071.31	788
3072.59	796
3073.88	784
3075.16	806
3076.45	814
3077.73	816
3079.02	794
3080.31	778
3081.59	830
3082.87	796
3084.16	800
3085.44	808
3086.73	814
3088.01	804
3089.29	826
3090.58	810
3091.86	830
3093.14	778
3094.43	828
3095.71	820
3096.99	804
3098.27	800
3099.55	840
3100.84	802
3102.12	792
3103.4	842
3104.68	830
3105.96	782
3107.24	816
3108.52	824
3109.8	816
3111.08	818
3112.36	826
3113.64	774
3114.92	856
3116.2	826
3117.48	840
3118.75	854
3120.03	826
3121.31	816
3122.59	826
3123.87	824
3125.14	832
3126.42	874
3127.7	818
3128.97	846
3130.25	828
3131.53	846
3132.8	866
3134.08	870
3135.35	850
3136.63	840
3137.9	842
3139.18	862
3140.45	828
3141.73	832
3143	894
3144.28	844
3145.55	860
3146.82	860
3148.1	876
3149.37	876
3150.64	864
3151.92	858
3153.19	864
3154.46	874
3155.73	864
3157.01	908
3158.28	864
3159.55	880
3160.82	878
3162.09	892
3163.36	890
3164.63	918
3165.9	908
3167.17	896
3168.44	882
3169.71	900
3170.98	874
3172.25	878
3173.52	890
3174.79	882
3176.06	892
3177.32	886
3178.59	886
3179.86	878
3181.13	866
3182.4	900
3183.66	896
3184.93	902
3186.2	918
3187.46	892
3188.73	898
3190	876
3191.26	888
3192.53	914
3193.79	872
3195.06	926
3196.32	914
3197.59	900
3198.85	898
3200.12	918
3201.38	912
3202.65	882
3203.91	918
3205.17	910
3206.44	918
3207.7	902
3208.96	912
3210.23	928
3211.49	902
3212.75	918
3214.01	918
3215.27	878
3216.54	894
3217.8	920
3219.06	900
3220.32	896
3221.58	928
3222.84	900
3224.1	920
3225.36	864
3226.62	896
3227.88	930
3229.14	914
3230.4	922
3231.66	942
3232.92	928
3234.18	914
3235.44	886
3236.69	936
3237.95	932
3239.21	926
3240.47	942
3241.72	924
3242.98	942
3244.24	934
3245.5	936
3246.75	922
3248.01	950
3249.26	928
3250.52	946
3251.78	936
3253.03	932
3254.29	944
3255.54	964
3256.8	926
3258.05	934
3259.3	906
3260.56	956
3261.81	936
3263.07	920
3264.32	962
3265.57	952
3266.83	948
3268.08	934
3269.33	950
3270.58	950
3271.84	974
3273.09	952
3274.34	952
3275.59	974
3276.84	984
3278.09	966
3279.35	962
3280.6	972
3281.85	996
3283.1	980
3284.35	928
3285.6	944
3286.85	972
3288.1	990
3289.35	978
3290.59	972
3291.84	992
3293.09	958
3294.34	996
3295.59	998
3296.84	990
3298.08	986
3299.33	970
3300.58	1002
3301.83	1006
3303.07	986
3304.32	1022
3305.57	960
3306.81	996
3308.06	1002
3309.3	968
3310.55	980
3311.79	982
3313.04	1008
3314.29	990
3315.53	1028
3316.77	1016
3318.02	1026
3319.26	1010
3320.51	1016
3321.75	1046
3322.99	1042
3324.24	998
3325.48	1048
3326.72	1020
3327.97	996
3329.21	1018
3330.45	1020
3331.69	1024
3332.93	1040
3334.18	1014
3335.42	1030
3336.66	1018
3337.9	1044
3339.14	1006
3340.38	1058
3341.62	1050
3342.86	1074
3344.1	1062
3345.34	1036
3346.58	1046
3347.82	1060
3349.06	1032
3350.3	1048
3351.54	1006
3352.77	1026
3354.01	1052
3355.25	1012
3356.49	1054
3357.73	1018
3358.96	1054
3360.2	1034
3361.44	1016
3362.67	1066
3363.91	1068
3365.15	1042
3366.38	1060
3367.62	1074
3368.85	1050
3370.09	1072
3371.33	1064
3372.56	1044
3373.8	1038
3375.03	1036
3376.26	1068
3377.5	1064
3378.73	1090
3379.97	1034
3381.2	1066
3382.43	1088
3383.67	1020
3384.9	1030
3386.13	1076
3387.37	1064
3388.6	1074
3389.83	1074
3391.06	1070
3392.29	1034
3393.52	1064
3394.76	1072
3395.99	1070
3397.22	1078
3398.45	1046
3399.68	1076
3400.91	1076
3402.14	1098
3403.37	1018
3404.6	1084
3405.83	1084
3407.06	1114
3408.29	1056
3409.51	1066
3410.74	1100
3411.97	1094
3413.2	1074
3414.43	1048
3415.66	1138
3416.88	1114
3418.11	1080
3419.34	1102
3420.56	1100
3421.79	1118
3423.02	1110
3424.24	1116
3425.47	1116
3426.7	1118
3427.92	1120
3429.15	1116
3430.37	1124
3431.6	1098
3432.82	1106
3434.05	1134
3435.27	1128
3436.5	1140
3437.72	1116
3438.94	1134
3440.17	1134
3441.39	1132
3442.61	1152
3443.84	1142
3445.06	1140
3446.28	1150
3447.51	1154
3448.73	1178
3449.95	1140
3451.17	1148
3452.39	1132
3453.61	1168
3454.83	1148
3456.06	1120
3457.28	1180
3458.5	1176
3459.72	1150
3460.94	1180
3462.16	1148
3463.38	1180
3464.6	1144
3465.82	1160
3467.04	1180
3468.25	1168
3469.47	1152
3470.69	1186
3471.91	1188
3473.13	1200
3474.34	1156
3475.56	1188
3476.78	1166
3478	1208
3479.21	1176
3480.43	1136
3481.65	1190
3482.86	1190
3484.08	1188
3485.3	1166
3486.51	1176
3487.73	1188
3488.94	1156
3490.16	1166
3491.37	1188
3492.59	1186
3493.8	1174
3495.02	1174
3496.23	1200
3497.45	1156
3498.66	1170
3499.87	1172
3501.09	1216
3502.3	1188
3503.51	1180
3504.72	1188
3505.94	1152
3507.15	1178
3508.36	1158
3509.57	1182
3510.79	1204
3512	1174
3513.21	1168
3514.42	1174
3515.63	1200
3516.84	1180
3518.05	1158
3519.26	1176
3520.47	1172
3521.68	1182
3522.89	1184
3524.1	1176
3525.31	1194
3526.52	1212
3527.73	1194
3528.94	1192
3530.14	1156
3531.35	1160
3532.56	1200
3533.77	1178
3534.98	1182
3536.18	1192
3537.39	1174
3538.6	1194
3539.81	1182
3541.01	1198
3542.22	1200
3543.42	1216
3544.63	1170
3545.84	1198
3547.04	1188
3548.25	1148
3549.45	1230
3550.66	1196
3551.86	1192
3553.07	1214
3554.27	1208
3555.47	1210
3556.68	1224
3557.88	1206
3559.09	1226
3560.29	1224
3561.49	1198
3562.7	1224
3563.9	1246
3565.1	1222
3566.3	1216
3567.51	1252
3568.71	1214
3569.91	1204
3571.11	1260
3572.31	1252
3573.51	1252
3574.71	1238
3575.92	1284
3577.12	1224
3578.32	1234
3579.52	1264
3580.72	1218
3581.92	1238
3583.12	1224
3584.31	1262
3585.51	1244
3586.71	1312
3587.91	1244
3589.11	1280
3590.31	1278
3591.51	1246
3592.71	1254
3593.9	1278
3595.1	1302
3596.3	1260
3597.49	1294
3598.69	1282
3599.89	1280
3601.08	1302
3602.28	1296
3603.48	1288
3604.67	1296
3605.87	1286
3607.06	1328
3608.26	1292
3609.45	1330
3610.65	1310
3611.84	1316
3613.04	1342
3614.23	1332
3615.43	1354
3616.62	1324
3617.82	1328
3619.01	1284
3620.2	1278
3621.39	1342
3622.59	1296
3623.78	1348
3624.97	1330
3626.17	1324
3627.36	1308
3628.55	1346
3629.74	1308
3630.93	1278
3632.12	1322
3633.31	1300
3634.51	1264
3635.7	1356
3636.89	1330
3638.08	1294
3639.27	1330
3640.46	1334
3641.65	1304
3642.84	1278
3644.03	1336
3645.22	1364
3646.4	1320
3647.59	1322
3648.78	1308
3649.97	1338
3651.16	1302
3652.35	1338
3653.53	1342
3654.72	1306
3655.91	1342
3657.1	1336
3658.28	1342
3659.47	1314
3660.66	1304
3661.84	1332
3663.03	1358
3664.21	1332
3665.4	1310
3666.59	1318
3667.77	1354
3668.96	1328
3670.14	1334
3671.33	1330
3672.51	1342
3673.69	1350
3674.88	1328
3676.06	1292
3677.25	1326
3678.43	1334
3679.61	1334
3680.8	1362
3681.98	1306
3683.16	1318
3684.34	1310
3685.53	1342
3686.71	1344
3687.89	1350
3689.07	1326
3690.25	1348
3691.44	1322
3692.62	1306
3693.8	1336
3694.98	1306
3696.16	1330
3697.34	1364
3698.52	1334
3699.7	1362
3700.88	1312
3702.06	1372
3703.24	1352
3704.42	1374
3705.6	1314
3706.78	1334
3707.96	1346
3709.13	1384
3710.31	1324
3711.49	1336
3712.67	1392
3713.85	1334
3715.02	1372
3716.2	1340
3717.38	1344
3718.56	1364
3719.73	1344
3720.91	1386
3722.08	1390
3723.26	1392
3724.44	1404
3725.61	1402
3726.79	1376
3727.96	1420
3729.14	1404
3730.31	1410
3731.49	1380
3732.66	1354
3733.84	1374
3735.01	1400
3736.18	1416
3737.36	1424
3738.53	1426
3739.7	1396
3740.88	1390
3742.05	1406
3743.22	1458
3744.4	1450
3745.57	1456
3746.74	1430
3747.91	1418
3749.09	1426
3750.26	1420
3751.43	1432
3752.6	1434
3753.77	1452
3754.94	1452
3756.11	1454
3757.28	1472
3758.45	1470
3759.62	1472
3760.79	1502
3761.96	1454
3763.13	1462
3764.3	1480
3765.47	1446
3766.64	1410
3767.81	1416
3768.98	1490
3770.14	1474
3771.31	1462
3772.48	1440
3773.65	1482
3774.82	1488
3775.98	1468
3777.15	1492
3778.32	1492
3779.48	1416
3780.65	1492
3781.82	1466
3782.98	1448
3784.15	1478
3785.32	1476
3786.48	1468
3787.65	1476
3788.81	1504
3789.98	1482
3791.14	1462
3792.3	1486
3793.47	1490
3794.63	1456
3795.8	1498
3796.96	1448
3798.13	1498
3799.29	1450
3800.45	1498
3801.61	1480
3802.78	1492
3803.94	1472
3805.1	1472
3806.27	1452
3807.43	1454
3808.59	1471
3809.75	1420
3810.91	1496
3812.07	1472
3813.24	1430
3814.4	1462
3815.56	1456
3816.72	1454
3817.88	1456
3819.04	1410
3820.2	1476
3821.36	1476
3822.52	1448
3823.68	1462
3824.84	1442
3826	1428
3827.15	1452
3828.31	1492
3829.47	1482
3830.63	1484
3831.79	1468
3832.95	1464
3834.1	1448
3835.26	1446
3836.42	1494
3837.58	1442
3838.73	1522
3839.89	1462
3841.04	1484
3842.2	1500
3843.36	1444
3844.51	1476
3845.67	1466
3846.83	1480
3847.98	1530
3849.14	1496
3850.29	1484
3851.45	1490
3852.6	1518
3853.76	1528
3854.91	1516
3856.06	1488
3857.22	1500
3858.37	1518
3859.52	1506
3860.68	1492
3861.83	1496
3862.98	1504
3864.14	1536
3865.29	1532
3866.44	1524
3867.59	1524
3868.75	1558
3869.9	1500
3871.05	1532
3872.2	1538
3873.35	1520
3874.5	1542
3875.65	1510
3876.8	1550
3877.95	1584
3879.1	1552
3880.25	1514
3881.4	1536
3882.55	1530
3883.7	1556
3884.85	1558
3886	1542
3887.15	1574
3888.3	1542
3889.45	1576
3890.6	1560
3891.75	1562
3892.89	1528
3894.04	1560
3895.19	1508
3896.34	1582
3897.48	1574
3898.63	1572
3899.78	1568
3900.92	1582
3902.07	1582
3903.22	1610
3904.36	1558
3905.51	1590
3906.65	1598
3907.8	1628
3908.94	1582
3910.09	1584
3911.23	1608
3912.38	1590
3913.52	1560
3914.67	1562
3915.81	1588
3916.96	1576
3918.1	1572
3919.24	1576
3920.39	1628
3921.53	1590
3922.67	1620
3923.82	1622
3924.96	1624
3926.1	1614
3927.24	1628
3928.39	1608
3929.53	1630
3930.67	1622
3931.81	1602
3932.95	1594
3934.09	1612
3935.24	1594
3936.38	1586
3937.52	1578
3938.66	1616
3939.8	1606
3940.94	1614
3942.08	1614
3943.22	1564
3944.36	1612
3945.5	1588
3946.63	1596
3947.77	1648
3948.91	1636
3950.05	1642
3951.19	1618
3952.33	1628
3953.47	1614
3954.6	1652
3955.74	1644
3956.88	1572
3958.02	1618
3959.15	1632
3960.29	1620
3961.43	1622
3962.56	1598
3963.7	1634
3964.84	1600
3965.97	1646
3967.11	1608
3968.24	1618
3969.38	1618
3970.51	1628
3971.65	1584
3972.78	1622
3973.92	1588
3975.05	1642
3976.19	1648
3977.32	1628
3978.45	1598
3979.59	1630
3980.72	1608
3981.85	1620
3982.99	1612
3984.12	1618
3985.25	1624
3986.39	1626
3987.52	1636
3988.65	1670
3989.78	1622
3990.91	1620
3992.05	1610
3993.18	1650
3994.31	1602
3995.44	1618
3996.57	1646
3997.7	1654
3998.83	1634
3999.96	1630
