#Acq. time (s)=	20
#Accumulations=	2
#Range (cm-¹)=	50...4000
#Windows=	3
#Autofocus=	Off
#AutoExposure=	Off
#Spike filter=	Multiple accum.
#Delay time (s)=	0
#Binning=	1
#Readout mode=	Signal
#DeNoise=	Off
#ICS correction=	Off
#Dark correction=	Off
#Inst. Process=	Off
#Instrument=	LabRAM HR Evol
#Detector=	Syncerity OE
#Objective=	x100_VIS
#Grating=	600 (500nm)
#ND Filter=	100%
#Laser=	532nm_Edge
#Hole=	100.021
#Range=	Visible
#Project=	Omar
#Sample=	
#Site=	21-09-22
#Title=	 CN-Sastre
#Remark=	
#Date=	21.09.2022 12:16
#Acquired=	21.09.2022 12:16:49
51.0918	36
52.9354	42
54.7807	38
56.6235	62
58.4681	72
60.3102	118
62.154	156
63.9954	220
65.8385	264
67.6792	360
69.5216	418
71.3615	566
73.2032	706
75.0424	880
76.8834	970
78.7218	1058
80.5621	1210
82.3998	1362
84.2393	1526
86.0764	1552
87.9152	1596
89.7515	1752
91.5874	1708
93.4251	1730
95.2603	1664
97.0973	1616
98.9318	1686
100.766	1666
102.602	1674
104.435	1730
106.27	1788
108.103	1742
109.936	1710
111.77	1730
113.601	1754
115.433	1756
117.266	1762
119.096	1700
120.926	1736
122.758	1730
124.588	1708
126.417	1654
128.246	1684
130.076	1684
131.904	1650
133.732	1610
135.561	1664
137.388	1674
139.215	1702
141.041	1712
142.869	1710
144.695	1644
146.52	1698
148.345	1658
150.171	1646
151.995	1626
153.819	1716
155.642	1656
157.465	1668
159.29	1636
161.112	1638
162.934	1612
164.756	1638
166.577	1656
168.398	1620
170.219	1584
172.041	1608
173.861	1578
175.68	1616
177.499	1550
179.318	1596
181.137	1594
182.955	1580
184.772	1576
186.592	1566
188.409	1576
190.225	1576
192.042	1554
193.857	1584
195.673	1552
197.488	1588
199.303	1504
201.118	1546
202.932	1524
204.746	1534
206.559	1528
208.372	1478
210.185	1522
211.997	1516
213.809	1490
215.621	1528
217.432	1528
219.243	1514
221.054	1506
222.864	1524
224.674	1500
226.483	1514
228.293	1494
230.101	1436
231.91	1462
233.718	1430
235.524	1496
237.331	1466
239.138	1488
240.945	1472
242.751	1444
244.557	1478
246.363	1486
248.168	1430
249.971	1506
251.776	1480
253.58	1500
255.384	1514
257.188	1488
258.991	1552
260.792	1508
262.594	1492
264.396	1490
266.198	1510
268	1460
269.799	1490
271.599	1484
273.4	1516
275.2	1460
277	1460
278.797	1536
280.596	1472
282.395	1470
284.193	1436
285.989	1438
287.786	1480
289.584	1476
291.378	1476
293.175	1446
294.971	1534
296.765	1482
298.561	1508
300.356	1488
302.148	1512
303.943	1506
305.737	1492
307.529	1524
309.322	1536
311.115	1510
312.906	1566
314.698	1508
316.49	1532
318.28	1546
320.071	1520
321.86	1546
323.651	1522
325.441	1534
327.229	1504
329.019	1548
330.806	1524
332.595	1538
334.381	1544
336.17	1578
337.955	1544
339.743	1528
341.528	1540
343.315	1520
345.099	1534
346.885	1496
348.669	1554
350.455	1520
352.238	1540
354.022	1512
355.805	1540
357.589	1530
359.371	1562
361.154	1572
362.935	1502
364.718	1560
366.498	1540
368.278	1556
370.06	1518
371.839	1522
373.62	1572
375.398	1568
377.177	1560
378.956	1590
380.734	1604
382.513	1604
384.29	1558
386.067	1594
387.845	1566
389.621	1582
391.396	1618
393.173	1600
394.948	1592
396.723	1590
398.499	1644
400.273	1590
402.046	1578
403.819	1586
405.594	1606
407.366	1574
409.138	1582
410.91	1580
412.683	1600
414.454	1588
416.225	1554
417.995	1606
419.768	1616
421.537	1596
423.307	1600
425.076	1552
426.844	1584
428.615	1570
430.382	1574
432.15	1572
433.917	1568
435.684	1576
437.451	1594
439.219	1576
440.985	1612
442.751	1598
444.516	1600
446.281	1618
448.045	1586
449.81	1600
451.574	1588
453.337	1592
455.102	1558
456.865	1604
458.628	1626
460.39	1582
462.152	1590
463.913	1648
465.674	1608
467.435	1608
469.196	1626
470.956	1576
472.716	1590
474.475	1612
476.234	1574
477.993	1574
479.752	1592
481.51	1554
483.268	1606
485.025	1554
486.782	1542
488.539	1524
490.295	1596
492.051	1568
493.807	1528
495.563	1554
497.316	1510
499.07	1546
500.825	1548
502.579	1496
504.333	1568
506.086	1516
507.839	1550
509.592	1526
511.344	1542
513.094	1558
514.846	1520
516.597	1570
518.349	1572
520.099	1552
521.85	1522
523.598	1580
525.347	1596
527.097	1608
528.846	1652
530.595	1656
532.341	1684
534.089	1742
535.837	1794
537.584	1828
539.329	1864
541.076	1920
542.822	1920
544.568	1932
546.312	1974
548.057	2046
549.802	2024
551.545	2058
553.289	2082
555.033	2110
556.775	2120
558.518	2142
560.261	2116
562.002	2116
563.744	2122
565.487	2112
567.226	2036
568.968	2064
570.709	2058
572.447	2048
574.188	1986
575.926	1998
577.665	1966
579.405	1964
581.142	1920
582.88	1928
584.617	1922
586.355	1882
588.091	1850
589.828	1824
591.565	1804
593.3	1784
595.036	1762
596.77	1786
598.506	1752
600.239	1744
601.974	1702
603.707	1664
605.442	1642
607.174	1682
608.905	1648
610.639	1640
612.37	1626
614.103	1612
615.833	1596
617.565	1530
619.295	1554
621.026	1532
622.755	1516
624.484	1488
626.215	1424
627.943	1418
629.67	1478
631.4	1448
633.127	1440
634.856	1404
636.582	1430
638.308	1426
640.036	1390
641.762	1372
643.487	1362
645.214	1362
646.938	1378
648.662	1334
650.386	1306
652.112	1340
653.835	1310
655.558	1274
657.282	1306
659.005	1250
660.726	1248
662.448	1262
664.171	1216
665.892	1208
667.613	1160
669.333	1180
671.053	1176
672.774	1162
674.494	1130
676.213	1140
677.931	1138
679.649	1122
681.369	1050
683.087	1114
684.804	1062
686.521	1078
688.238	1042
689.954	1002
691.67	1034
693.386	1044
695.103	1010
696.818	1002
698.533	1008
700.247	960
701.961	960
703.675	972
705.389	970
707.102	936
708.814	934
710.527	922
712.239	922
713.951	910
715.662	866
717.373	904
719.084	894
720.795	892
722.505	876
724.215	896
725.924	848
727.633	862
729.342	872
731.051	876
732.759	852
734.467	846
736.174	842
737.882	832
739.589	864
741.295	826
742.999	846
744.705	852
746.411	864
748.116	860
749.821	848
751.526	842
753.23	880
754.934	864
756.636	864
758.34	894
760.043	878
761.745	854
763.448	864
765.148	886
766.85	888
768.551	900
770.252	854
771.953	904
773.652	890
775.352	898
777.052	904
778.751	920
780.448	888
782.147	888
783.846	896
785.544	884
787.24	898
788.938	908
790.635	924
792.33	916
794.027	884
795.723	934
797.417	872
799.113	860
800.808	890
802.501	894
804.196	894
805.89	876
807.582	850
809.276	884
810.968	838
812.661	804
814.354	790
816.044	788
817.736	826
819.426	764
821.118	780
822.807	784
824.498	754
826.186	772
827.877	792
829.565	714
831.254	730
832.942	714
834.631	716
836.317	704
838.006	708
839.692	692
841.38	684
843.065	686
844.752	678
846.437	700
848.123	664
849.808	714
851.493	696
853.177	668
854.86	676
856.545	666
858.228	692
859.912	678
861.594	692
863.276	690
864.959	680
866.64	680
868.321	672
870.003	676
871.683	694
873.363	674
875.044	690
876.723	668
878.402	680
880.083	644
881.761	648
883.439	690
885.116	664
886.795	686
888.472	678
890.149	672
891.825	702
893.503	712
895.179	700
896.854	706
898.529	708
900.204	732
901.88	698
903.555	704
905.228	698
906.902	720
908.575	728
910.25	760
911.922	750
913.595	778
915.266	796
916.938	762
918.609	796
920.28	772
921.951	822
923.623	846
925.293	814
926.963	828
928.633	832
930.302	848
931.97	884
933.639	870
935.307	930
936.975	930
938.642	914
940.31	932
941.977	924
943.643	972
945.31	952
946.976	934
948.641	974
950.307	970
951.972	970
953.636	952
955.301	966
956.965	986
958.629	988
960.292	960
961.955	930
963.618	992
965.279	964
966.941	932
968.603	984
970.265	980
971.926	978
973.587	978
975.248	946
976.908	960
978.566	982
980.226	1006
981.886	1056
983.545	1018
985.204	1054
986.86	1000
988.519	1048
990.177	1066
991.834	1064
993.491	1032
995.147	1042
996.803	1056
998.46	1016
1000.12	1068
1001.77	1054
1003.43	1066
1005.08	1076
1006.73	1080
1008.39	1112
1010.04	1094
1011.7	1128
1013.35	1136
1015	1118
1016.65	1176
1018.3	1152
1019.96	1202
1021.61	1226
1023.26	1214
1024.91	1204
1026.56	1206
1028.21	1276
1029.86	1260
1031.51	1264
1033.16	1312
1034.81	1300
1036.46	1368
1038.1	1366
1039.75	1396
1041.4	1352
1043.05	1392
1044.69	1426
1046.34	1426
1047.99	1446
1049.63	1458
1051.28	1470
1052.92	1476
1054.57	1546
1056.21	1574
1057.86	1616
1059.5	1624
1061.14	1648
1062.79	1648
1064.43	1666
1066.07	1712
1067.72	1696
1069.36	1738
1071	1804
1072.64	1792
1074.28	1810
1075.92	1876
1077.57	1896
1079.2	1876
1080.84	1866
1082.48	1962
1084.12	1950
1085.76	1950
1087.4	1990
1089.04	2016
1090.68	1996
1092.32	2024
1093.95	2022
1095.59	1998
1097.22	1996
1098.86	2004
1100.5	2008
1102.13	1960
1103.77	2010
1105.4	1928
1107.04	1906
1108.67	1906
1110.31	1848
1111.94	1832
1113.58	1810
1115.21	1784
1116.84	1776
1118.47	1668
1120.1	1676
1121.74	1646
1123.37	1632
1125	1606
1126.63	1538
1128.26	1462
1129.89	1488
1131.52	1462
1133.15	1470
1134.78	1408
1136.41	1386
1138.04	1356
1139.67	1334
1141.3	1312
1142.92	1292
1144.55	1286
1146.18	1236
1147.8	1214
1149.43	1226
1151.06	1170
1152.68	1166
1154.31	1148
1155.93	1126
1157.56	1092
1159.18	1084
1160.81	1080
1162.43	1036
1164.06	1030
1165.68	1028
1167.3	1012
1168.93	986
1170.55	952
1172.17	954
1173.79	962
1175.41	936
1177.03	944
1178.66	948
1180.28	886
1181.9	840
1183.52	896
1185.14	862
1186.75	888
1188.37	866
1189.99	888
1191.61	816
1193.23	820
1194.85	798
1196.46	782
1198.08	788
1199.7	776
1201.31	788
1202.93	756
1204.55	742
1206.16	730
1207.78	696
1209.39	706
1211.01	760
1212.62	722
1214.24	696
1215.85	696
1217.46	722
1219.08	670
1220.69	690
1222.3	656
1223.91	678
1225.53	680
1227.14	672
1228.75	658
1230.36	636
1231.97	662
1233.58	656
1235.19	650
1236.8	636
1238.41	650
1240.02	646
1241.63	632
1243.23	642
1244.84	638
1246.45	636
1248.06	634
1249.67	592
1251.27	648
1252.88	622
1254.48	620
1256.09	624
1257.7	622
1259.3	618
1260.91	644
1262.51	650
1264.12	634
1265.72	582
1267.32	600
1268.93	626
1270.53	612
1272.13	628
1273.73	628
1275.34	634
1276.94	596
1278.54	622
1280.14	602
1281.74	614
1283.35	606
1284.94	626
1286.54	614
1288.15	624
1289.74	634
1291.34	648
1292.94	624
1294.54	616
1296.14	628
1297.74	620
1299.33	622
1300.93	668
1302.53	648
1304.12	648
1305.72	646
1307.32	650
1308.91	666
1310.51	650
1312.1	636
1313.7	660
1315.29	658
1316.89	632
1318.48	648
1320.07	638
1321.67	658
1323.26	678
1324.85	650
1326.45	678
1328.04	664
1329.63	622
1331.22	640
1332.81	662
1334.4	674
1335.99	672
1337.58	678
1339.17	666
1340.77	698
1342.35	682
1343.94	658
1345.53	658
1347.12	694
1348.71	674
1350.3	658
1351.88	638
1353.47	702
1355.06	714
1356.64	648
1358.23	674
1359.82	678
1361.4	650
1362.99	652
1364.57	652
1366.16	634
1367.74	660
1369.33	690
1370.91	656
1372.49	680
1374.08	638
1375.66	638
1377.24	674
1378.82	678
1380.41	632
1381.99	652
1383.57	668
1385.15	638
1386.73	662
1388.31	664
1389.89	620
1391.47	646
1393.05	644
1394.63	662
1396.21	616
1397.79	636
1399.37	622
1400.95	662
1402.52	614
1404.1	642
1405.68	644
1407.25	650
1408.83	604
1410.41	634
1411.98	614
1413.56	626
1415.13	642
1416.71	648
1418.29	654
1419.86	616
1421.43	652
1423.01	632
1424.58	626
1426.15	630
1427.73	634
1429.3	630
1430.87	636
1432.44	640
1434.02	644
1435.59	634
1437.16	664
1438.73	644
1440.3	646
1441.87	628
1443.44	628
1445.01	648
1446.58	636
1448.15	630
1449.72	648
1451.29	668
1452.85	648
1454.42	630
1455.99	638
1457.56	634
1459.12	630
1460.69	608
1462.26	652
1463.82	660
1465.39	664
1466.95	610
1468.52	650
1470.08	626
1471.65	622
1473.21	656
1474.78	588
1476.34	638
1477.9	644
1479.47	626
1481.03	638
1482.59	644
1484.16	634
1485.72	672
1487.28	618
1488.84	648
1490.4	662
1491.96	668
1493.52	648
1495.08	614
1496.64	652
1498.2	658
1499.76	658
1501.32	666
1502.88	646
1504.44	662
1506	636
1507.55	634
1509.11	662
1510.67	690
1512.22	648
1513.78	642
1515.34	660
1516.89	698
1518.45	658
1520.01	652
1521.56	684
1523.11	642
1524.67	644
1526.22	694
1527.78	670
1529.33	648
1530.88	684
1532.44	686
1533.99	634
1535.54	634
1537.09	670
1538.65	668
1540.2	684
1541.75	646
1543.3	624
1544.85	662
1546.4	694
1547.95	654
1549.5	708
1551.05	654
1552.6	668
1554.15	704
1555.7	672
1557.25	688
1558.79	676
1560.34	680
1561.89	692
1563.43	640
1564.98	646
1566.53	654
1568.08	690
1569.62	674
1571.17	672
1572.71	708
1574.26	670
1575.8	662
1577.35	694
1578.89	714
1580.43	662
1581.98	684
1583.52	676
1585.06	682
1586.61	692
1588.15	660
1589.69	718
1591.23	672
1592.77	692
1594.32	704
1595.86	680
1597.4	698
1598.94	682
1600.48	698
1602.02	670
1603.56	690
1605.1	694
1606.64	703.314
1608.18	688.227
1609.71	679.419
1611.25	647.288
1612.79	659.353
1614.33	681.311
1615.86	648.8
1617.4	603.654
1618.94	679.471
1620.47	650.971
1622.01	655.203
1623.55	654.604
1625.08	650.412
1626.62	649.129
1628.15	646.471
1629.69	630.899
1631.22	638.825
1632.75	643.671
1634.29	672.148
1635.82	636.078
1637.35	633.011
1638.89	657.898
1640.42	665.641
1641.95	618.802
1643.48	649.701
1645.02	629.501
1646.55	651.073
1648.08	638.746
1649.61	640.016
1651.14	633.085
1652.67	636.686
1654.2	630.506
1655.73	628.836
1657.26	638.473
1658.79	636.65
1660.32	633.79
1661.84	654.19
1663.37	604.75
1664.9	645.067
1666.43	620.82
1667.96	628.31
1669.48	616.335
1671.01	632.055
1672.54	598.72
1674.06	631.219
1675.59	612.203
1677.11	624.439
1678.64	604.276
1680.16	620.887
1681.69	622.448
1683.21	612.671
1684.74	605.591
1686.26	627.565
1687.79	638.988
1689.31	609.394
1690.83	605.352
1692.35	618.922
1693.88	609.097
1695.4	627.925
1696.92	611.931
1698.44	604.91
1699.96	615.726
1701.48	605.198
1703.01	602.513
1704.53	617.25
1706.05	588.852
1707.57	590.413
1709.09	594.323
1710.6	586.892
1712.12	591.433
1713.64	612.408
1715.16	583.339
1716.68	603.327
1718.2	591.02
1719.71	604.739
1721.23	588.631
1722.75	605.821
1724.27	600.14
1725.78	608.156
1727.3	595.487
1728.81	596.106
1730.33	603.113
1731.84	604.519
1733.36	589.392
1734.88	578.383
1736.39	585.788
1737.9	585.228
1739.42	596.805
1740.93	599.81
1742.44	600.084
1743.96	603.966
1745.47	571.648
1746.98	589.269
1748.49	578.014
1750.01	571.483
1751.52	564.868
1753.03	571.221
1754.54	568.95
1756.05	565.514
1757.56	593.321
1757.63	594
1759.14	574
1760.66	576
1762.18	568
1763.69	548
1765.21	572
1766.72	582
1768.24	568
1769.75	568
1771.27	588
1772.78	556
1774.3	590
1775.81	576
1777.32	544
1778.84	578
1780.35	566
1781.86	572
1783.38	598
1784.89	560
1786.4	564
1787.91	570
1789.42	562
1790.93	564
1792.44	560
1793.95	586
1795.47	586
1796.98	554
1798.48	580
1799.99	584
1801.5	556
1803.01	564
1804.52	570
1806.03	570
1807.54	602
1809.04	568
1810.55	568
1812.06	564
1813.57	598
1815.07	574
1816.58	580
1818.08	588
1819.59	596
1821.09	546
1822.6	586
1824.11	586
1825.61	572
1827.11	568
1828.62	562
1830.12	546
1831.63	578
1833.13	564
1834.63	588
1836.13	588
1837.64	566
1839.14	590
1840.64	554
1842.14	580
1843.64	560
1845.14	560
1846.64	572
1848.14	582
1849.64	582
1851.14	568
1852.64	564
1854.14	564
1855.64	576
1857.14	556
1858.64	568
1860.14	610
1861.64	604
1863.13	582
1864.63	558
1866.13	570
1867.63	592
1869.12	582
1870.62	600
1872.11	602
1873.61	594
1875.1	544
1876.6	606
1878.09	578
1879.59	568
1881.08	590
1882.58	580
1884.07	586
1885.56	588
1887.06	550
1888.55	586
1890.04	582
1891.54	592
1893.03	542
1894.52	590
1896.01	576
1897.5	612
1898.99	594
1900.48	588
1901.97	586
1903.46	582
1904.96	592
1906.44	592
1907.93	574
1909.42	580
1910.91	564
1912.4	590
1913.89	596
1915.38	580
1916.86	596
1918.35	570
1919.84	608
1921.32	602
1922.81	612
1924.3	576
1925.78	580
1927.27	590
1928.76	578
1930.24	564
1931.72	598
1933.21	578
1934.69	568
1936.18	582
1937.66	562
1939.15	582
1940.63	594
1942.11	600
1943.59	590
1945.08	584
1946.56	568
1948.04	578
1949.52	596
1951	576
1952.48	594
1953.97	596
1955.45	576
1956.93	582
1958.41	606
1959.89	572
1961.37	616
1962.85	582
1964.32	574
1965.8	580
1967.28	604
1968.76	592
1970.24	588
1971.71	572
1973.19	594
1974.67	592
1976.15	578
1977.62	580
1979.1	568
1980.57	562
1982.05	586
1983.53	578
1985	584
1986.48	582
1987.95	560
1989.42	604
1990.9	598
1992.37	576
1993.85	578
1995.32	582
1996.79	586
1998.26	616
1999.74	610
2001.21	596
2002.68	602
2004.15	594
2005.62	582
2007.09	586
2008.56	598
2010.03	576
2011.51	584
2012.98	570
2014.44	580
2015.92	598
2017.38	610
2018.85	586
2020.32	558
2021.79	592
2023.26	566
2024.73	608
2026.19	580
2027.66	574
2029.13	590
2030.59	564
2032.06	570
2033.53	604
2034.99	600
2036.46	588
2037.92	596
2039.39	602
2040.85	590
2042.32	560
2043.78	612
2045.25	602
2046.71	614
2048.17	602
2049.64	606
2051.1	596
2052.56	584
2054.02	596
2055.49	598
2056.95	586
2058.41	604
2059.87	596
2061.33	602
2062.79	588
2064.25	600
2065.71	608
2067.17	606
2068.63	580
2070.09	608
2071.55	596
2073.01	606
2074.47	566
2075.93	578
2077.39	592
2078.84	610
2080.3	594
2081.76	598
2083.22	598
2084.67	604
2086.13	612
2087.59	594
2089.04	600
2090.5	606
2091.95	594
2093.41	582
2094.86	562
2096.32	562
2097.77	600
2099.23	592
2100.68	594
2102.13	570
2103.59	578
2105.04	596
2106.49	606
2107.95	584
2109.4	602
2110.85	576
2112.3	600
2113.75	572
2115.21	592
2116.66	608
2118.11	586
2119.56	594
2121.01	570
2122.46	578
2123.91	606
2125.36	584
2126.8	582
2128.25	590
2129.7	604
2131.15	594
2132.6	596
2134.05	592
2135.49	584
2136.94	610
2138.39	592
2139.83	616
2141.28	590
2142.73	558
2144.17	600
2145.62	602
2147.06	582
2148.51	586
2149.95	594
2151.4	570
2152.84	598
2154.29	576
2155.73	606
2157.17	582
2158.62	610
2160.06	606
2161.5	604
2162.95	592
2164.39	592
2165.83	590
2167.27	586
2168.71	586
2170.15	608
2171.59	584
2173.04	600
2174.48	620
2175.92	618
2177.36	570
2178.79	598
2180.24	588
2181.67	618
2183.11	630
2184.55	606
2185.99	588
2187.43	602
2188.86	594
2190.3	598
2191.74	574
2193.18	582
2194.61	604
2196.05	586
2197.49	578
2198.92	598
2200.36	614
2201.79	578
2203.23	626
2204.66	580
2206.1	574
2207.53	576
2208.97	574
2210.4	588
2211.83	592
2213.27	584
2214.7	564
2216.13	588
2217.57	580
2219	600
2220.43	602
2221.86	578
2223.29	586
2224.72	562
2226.15	552
2227.59	588
2229.02	556
2230.45	588
2231.88	590
2233.31	578
2234.74	578
2236.16	582
2237.59	590
2239.02	576
2240.45	582
2241.88	598
2243.31	574
2244.73	558
2246.16	588
2247.59	554
2249.01	602
2250.44	600
2251.87	560
2253.29	576
2254.72	608
2256.15	598
2257.57	560
2259	584
2260.42	588
2261.84	578
2263.27	566
2264.69	578
2266.12	604
2267.54	594
2268.96	594
2270.39	586
2271.81	556
2273.23	602
2274.65	596
2276.07	592
2277.5	558
2278.92	594
2280.34	586
2281.76	596
2283.18	592
2284.6	612
2286.02	612
2287.44	592
2288.86	602
2290.28	592
2291.7	584
2293.12	600
2294.54	580
2295.95	608
2297.37	618
2298.79	590
2300.21	622
2301.62	608
2303.04	594
2304.46	592
2305.88	592
2307.29	592
2308.71	576
2310.12	612
2311.54	606
2312.95	608
2314.37	608
2315.78	598
2317.2	622
2318.61	634
2320.02	590
2321.44	606
2322.85	614
2324.27	628
2325.68	652
2327.09	644
2328.5	670
2329.92	638
2331.33	662
2332.74	636
2334.15	630
2335.56	636
2336.97	606
2338.38	638
2339.79	628
2341.2	666
2342.61	634
2344.02	658
2345.43	644
2346.84	654
2348.25	650
2349.66	642
2351.07	672
2352.48	624
2353.88	678
2355.29	644
2356.7	634
2358.11	674
2359.51	642
2360.92	652
2362.32	690
2363.73	640
2365.14	680
2366.54	662
2367.95	688
2369.35	690
2370.76	688
2372.16	686
2373.57	690
2374.97	718
2376.37	672
2377.78	676
2379.18	728
2380.58	690
2381.99	694
2383.39	676
2384.79	704
2386.19	686
2387.59	694
2389	684
2390.4	710
2391.8	688
2393.2	686
2394.6	720
2396	704
2397.4	722
2398.8	700
2400.2	728
2401.6	692
2403	714
2404.39	738
2405.79	738
2407.19	742
2408.59	742
2409.99	734
2411.38	728
2412.78	712
2414.18	732
2415.57	730
2416.97	742
2418.37	718
2419.76	718
2421.16	772
2422.55	728
2423.95	752
2425.34	762
2426.74	720
2428.13	732
2429.53	744
2430.92	750
2432.31	736
2433.71	744
2435.1	750
2436.49	726
2437.89	738
2439.28	768
2440.67	742
2442.06	744
2443.45	746
2444.85	728
2446.24	742
2447.63	714
2449.02	704
2450.41	718
2451.8	752
2453.19	770
2454.58	742
2455.97	760
2457.36	740
2458.75	744
2460.13	738
2461.52	748
2462.91	748
2464.3	744
2465.69	696
2467.07	734
2468.46	718
2469.85	710
2471.24	736
2472.62	754
2474.01	740
2475.39	742
2476.78	734
2478.16	728
2479.55	738
2480.94	730
2482.32	730
2483.7	750
2485.09	728
2486.47	744
2487.85	696
2489.24	742
2490.62	716
2492	742
2493.39	714
2494.77	752
2496.15	748
2497.53	736
2498.92	732
2500.3	726
2501.68	722
2503.06	732
2504.44	760
2505.82	756
2507.2	750
2508.58	750
2509.96	760
2511.34	700
2512.72	686
2514.1	732
2515.48	738
2516.85	752
2518.23	728
2519.61	732
2520.99	726
2522.37	736
2523.74	760
2525.12	738
2526.5	734
2527.87	738
2529.25	710
2530.63	726
2532	736
2533.38	744
2534.75	722
2536.13	748
2537.5	750
2538.88	746
2540.25	698
2541.62	736
2543	756
2544.37	740
2545.75	744
2547.12	726
2548.49	748
2549.86	712
2551.24	746
2552.61	718
2553.98	726
2555.35	726
2556.72	708
2558.09	734
2559.47	748
2560.84	780
2562.21	760
2563.57	724
2564.95	724
2566.32	732
2567.68	742
2569.05	744
2570.42	754
2571.79	732
2573.16	738
2574.53	738
2575.9	752
2577.26	746
2578.63	732
2580	738
2581.36	734
2582.73	752
2584.1	744
2585.46	720
2586.83	750
2588.19	732
2589.56	752
2590.93	712
2592.29	758
2593.66	726
2595.02	748
2596.39	732
2597.75	732
2599.11	774
2600.47	718
2601.84	750
2603.2	730
2604.56	700
2605.93	736
2607.29	788
2608.65	760
2610.01	760
2611.38	728
2612.74	788
2614.1	746
2615.46	778
2616.82	752
2618.18	746
2619.54	746
2620.9	748
2622.26	786
2623.62	762
2624.98	764
2626.34	754
2627.69	758
2629.05	760
2630.41	748
2631.77	750
2633.13	752
2634.48	762
2635.84	736
2637.2	764
2638.56	776
2639.91	746
2641.27	752
2642.62	764
2643.98	786
2645.33	778
2646.69	804
2648.05	762
2649.4	779
2650.75	772
2652.11	752
2653.46	776
2654.82	786
2656.17	782
2657.52	782
2658.88	792
2660.23	772
2661.58	772
2662.94	766
2664.29	770
2665.64	766
2666.99	782
2668.34	764
2669.69	796
2671.04	784
2672.39	778
2673.75	810
2675.09	764
2676.45	754
2677.79	780
2679.14	766
2680.49	770
2681.84	760
2683.19	768
2684.54	800
2685.89	790
2687.24	740
2688.58	782
2689.93	776
2691.28	776
2692.63	758
2693.97	802
2695.32	796
2696.67	778
2698.01	774
2699.36	794
2700.7	784
2702.05	790
2703.39	782
2704.74	766
2706.08	764
2707.43	774
2708.77	792
2710.12	778
2711.46	800
2712.8	780
2714.15	784
2715.49	786
2716.83	776
2718.17	798
2719.52	776
2720.86	786
2722.2	812
2723.54	782
2724.88	790
2726.22	792
2727.57	792
2728.91	780
2730.25	820
2731.59	796
2732.93	786
2734.27	810
2735.61	812
2736.95	798
2738.28	796
2739.62	784
2740.96	810
2742.3	796
2743.64	790
2744.98	784
2746.31	786
2747.65	768
2748.99	814
2750.33	812
2751.66	808
2753	816
2754.33	788
2755.67	812
2757.01	834
2758.34	826
2759.68	804
2761.01	798
2762.35	802
2763.68	838
2765.01	750
2766.35	818
2767.68	784
2769.02	812
2770.35	798
2771.68	806
2773.02	832
2774.35	848
2775.68	822
2777.01	804
2778.35	840
2779.68	800
2781.01	842
2782.34	836
2783.67	814
2785	816
2786.33	834
2787.66	792
2788.99	750
2790.32	820
2791.65	844
2792.98	846
2794.31	840
2795.64	840
2796.97	808
2798.3	866
2799.62	812
2800.95	860
2802.28	850
2803.61	808
2804.93	872
2806.26	852
2807.59	854
2808.91	846
2810.24	870
2811.57	808
2812.89	854
2814.22	846
2815.54	866
2816.87	838
2818.19	870
2819.52	844
2820.84	854
2822.17	874
2823.49	850
2824.81	860
2826.14	880
2827.46	844
2828.78	858
2830.11	860
2831.43	828
2832.75	832
2834.07	852
2835.39	876
2836.72	872
2838.04	866
2839.36	860
2840.68	872
2842	862
2843.32	876
2844.64	874
2845.96	868
2847.28	864
2848.6	862
2849.92	890
2851.24	864
2852.56	880
2853.88	872
2855.19	884
2856.51	876
2857.83	880
2859.15	882
2860.46	882
2861.78	872
2863.1	902
2864.42	912
2865.73	894
2867.05	898
2868.36	910
2869.68	904
2871	852
2872.31	868
2873.63	882
2874.94	908
2876.26	888
2877.57	930
2878.88	882
2880.2	914
2881.51	844
2882.82	918
2884.14	896
2885.45	916
2886.76	930
2888.08	916
2889.39	892
2890.7	890
2892.01	928
2893.33	910
2894.64	908
2895.95	910
2897.26	898
2898.57	922
2899.88	918
2901.19	954
2902.5	910
2903.81	906
2905.12	926
2906.43	904
2907.74	910
2909.05	926
2910.35	912
2911.66	886
2912.97	946
2914.28	920
2915.59	924
2916.89	924
2918.2	928.133
2919.51	931.574
2920.82	963.38
2922.12	916.334
2923.43	956.42
2924.73	950.078
2926.04	959.408
2927.35	922.569
2928.65	915.151
2929.96	925.97
2931.26	943.936
2932.57	952.246
2933.87	952.731
2935.17	937.199
2936.48	981.141
2937.78	952.113
2939.09	900.784
2940.39	920.049
2941.69	929.603
2943	960.279
2944.3	955.138
2945.6	954.789
2946.9	936.042
2948.2	938.151
2949.51	918.331
2950.81	969.98
2952.11	946.426
2953.41	967.217
2954.71	981.661
2956.01	967.631
2957.31	961.085
2958.61	952.327
2959.91	962.76
2961.21	961.537
2962.51	974.154
2963.81	931.97
2965.11	949.071
2966.41	981.356
2967.71	974.043
2969.01	965.565
2970.3	949.088
2971.6	987.908
2972.9	975.608
2974.2	975.751
2975.49	982.069
2976.79	975.777
2978.09	973.11
2979.39	973.418
2980.68	966.711
2981.98	984.81
2983.27	979.27
2984.57	986.741
2985.86	1008.73
2987.16	979.467
2988.45	970.756
2989.75	992.288
2991.04	958.29
2992.34	988.053
2993.63	998.755
2994.93	977.711
2996.22	992.549
2997.51	1008.26
2998.81	987.873
3000.1	1003.44
3001.39	997.776
3002.68	1001.27
3003.98	1000.74
3005.27	1009.91
3006.56	991.631
3007.85	1016.53
3009.14	1016.84
3010.43	1010.41
3011.72	1017.06
3013.01	1016.95
3014.31	1000.76
3015.59	1008.29
3016.89	1013.36
3018.18	1027.12
3019.47	1007.47
3020.75	1026.85
3022.04	1034.89
3023.33	1019.88
3024.62	1021.71
3025.91	1041.08
3027.2	1012
3028.48	1051.99
3029.77	1036.63
3031.06	1032.24
3032.35	1044.93
3033.64	1045.37
3034.92	1040.89
3036.21	1033.38
3037.5	1028.43
3038.78	1040.17
3040.07	1063.26
3041.35	1052.46
3042.64	1031.95
3043.92	1050.85
3045.21	1071.11
3046.49	1040.15
3047.78	1045.88
3048.11	1052
3049.4	1046
3050.69	1072
3051.98	1078
3053.27	1068
3054.56	1046
3055.85	1046
3057.14	1066
3058.43	1064
3059.72	1088
3061.01	1050
3062.29	1064
3063.58	1068
3064.87	1084
3066.16	1104
3067.44	1084
3068.73	1084
3070.02	1066
3071.31	1070
3072.59	1078
3073.88	1078
3075.16	1088
3076.45	1076
3077.73	1102
3079.02	1104
3080.31	1094
3081.59	1076
3082.87	1078
3084.16	1082
3085.44	1100
3086.73	1090
3088.01	1088
3089.29	1108
3090.58	1138
3091.86	1106
3093.14	1108
3094.43	1118
3095.71	1078
3096.99	1130
3098.27	1092
3099.55	1140
3100.84	1118
3102.12	1112
3103.4	1072
3104.68	1130
3105.96	1084
3107.24	1112
3108.52	1126
3109.8	1088
3111.08	1132
3112.36	1120
3113.64	1138
3114.92	1138
3116.2	1136
3117.48	1160
3118.75	1098
3120.03	1126
3121.31	1128
3122.59	1104
3123.87	1146
3125.14	1180
3126.42	1158
3127.7	1128
3128.97	1144
3130.25	1180
3131.53	1152
3132.8	1138
3134.08	1134
3135.35	1106
3136.63	1196
3137.9	1170
3139.18	1116
3140.45	1220
3141.73	1168
3143	1182
3144.28	1190
3145.55	1184
3146.82	1218
3148.1	1188
3149.37	1180
3150.64	1178
3151.92	1214
3153.19	1204
3154.46	1194
3155.73	1196
3157.01	1172
3158.28	1192
3159.55	1212
3160.82	1208
3162.09	1198
3163.36	1162
3164.63	1218
3165.9	1218
3167.17	1238
3168.44	1196
3169.71	1222
3170.98	1256
3172.25	1234
3173.52	1250
3174.79	1258
3176.06	1186
3177.32	1232
3178.59	1212
3179.86	1214
3181.13	1242
3182.4	1238
3183.66	1248
3184.93	1248
3186.2	1212
3187.46	1248
3188.73	1250
3190	1248
3191.26	1258
3192.53	1218
3193.79	1242
3195.06	1216
3196.32	1222
3197.59	1236
3198.85	1214
3200.12	1254
3201.38	1248
3202.65	1250
3203.91	1242
3205.17	1274
3206.44	1250
3207.7	1250
3208.96	1252
3210.23	1276
3211.49	1256
3212.75	1246
3214.01	1230
3215.27	1264
3216.54	1252
3217.8	1266
3219.06	1250
3220.32	1252
3221.58	1298
3222.84	1246
3224.1	1274
3225.36	1268
3226.62	1302
3227.88	1278
3229.14	1288
3230.4	1286
3231.66	1302
3232.92	1276
3234.18	1308
3235.44	1294
3236.69	1300
3237.95	1264
3239.21	1236
3240.47	1270
3241.72	1272
3242.98	1294
3244.24	1320
3245.5	1296
3246.75	1278
3248.01	1304
3249.26	1312
3250.52	1314
3251.78	1292
3253.03	1302
3254.29	1314
3255.54	1330
3256.8	1328
3258.05	1306
3259.3	1322
3260.56	1310
3261.81	1332
3263.07	1328
3264.32	1338
3265.57	1320
3266.83	1356
3268.08	1360
3269.33	1340
3270.58	1360
3271.84	1316
3273.09	1310
3274.34	1328
3275.59	1374
3276.84	1354
3278.09	1346
3279.35	1318
3280.6	1358
3281.85	1370
3283.1	1346
3284.35	1336
3285.6	1334
3286.85	1348
3288.1	1362
3289.35	1368
3290.59	1330
3291.84	1384
3293.09	1368
3294.34	1344
3295.59	1382
3296.84	1380
3298.08	1388
3299.33	1380
3300.58	1414
3301.83	1402
3303.07	1406
3304.32	1366
3305.57	1404
3306.81	1380
3308.06	1410
3309.3	1396
3310.55	1424
3311.79	1392
3313.04	1410
3314.29	1398
3315.53	1414
3316.77	1408
3318.02	1442
3319.26	1418
3320.51	1408
3321.75	1412
3322.99	1384
3324.24	1450
3325.48	1462
3326.72	1424
3327.97	1408
3329.21	1480
3330.45	1426
3331.69	1414
3332.93	1484
3334.18	1434
3335.42	1456
3336.66	1442
3337.9	1438
3339.14	1470
3340.38	1416
3341.62	1486
3342.86	1470
3344.1	1446
3345.34	1504
3346.58	1472
3347.82	1478
3349.06	1436
3350.3	1464
3351.54	1466
3352.77	1452
3354.01	1480
3355.25	1470
3356.49	1498
3357.73	1468
3358.96	1454
3360.2	1480
3361.44	1496
3362.67	1470
3363.91	1502
3365.15	1492
3366.38	1446
3367.62	1456
3368.85	1474
3370.09	1470
3371.33	1466
3372.56	1464
3373.8	1446
3375.03	1452
3376.26	1468
3377.5	1518
3378.73	1518
3379.97	1514
3381.2	1520
3382.43	1506
3383.67	1484
3384.9	1502
3386.13	1522
3387.37	1488
3388.6	1512
3389.83	1496
3391.06	1514
3392.29	1520
3393.52	1514
3394.76	1522
3395.99	1512
3397.22	1482
3398.45	1508
3399.68	1504
3400.91	1490
3402.14	1548
3403.37	1524
3404.6	1496
3405.83	1540
3407.06	1532
3408.29	1536
3409.51	1534
3410.74	1546
3411.97	1554
3413.2	1548
3414.43	1552
3415.66	1548
3416.88	1560
3418.11	1558
3419.34	1572
3420.56	1530
3421.79	1562
3423.02	1556
3424.24	1630
3425.47	1558
3426.7	1622
3427.92	1612
3429.15	1614
3430.37	1550
3431.6	1564
3432.82	1518
3434.05	1622
3435.27	1610
3436.5	1624
3437.72	1616
3438.94	1544
3440.17	1620
3441.39	1608
3442.61	1574
3443.84	1632
3445.06	1618
3446.28	1622
3447.51	1616
3448.73	1620
3449.95	1660
3451.17	1632
3452.39	1622
3453.61	1594
3454.83	1644
3456.06	1608
3457.28	1658
3458.5	1654
3459.72	1638
3460.94	1646
3462.16	1684
3463.38	1672
3464.6	1642
3465.82	1676
3467.04	1628
3468.25	1670
3469.47	1662
3470.69	1672
3471.91	1712
3473.13	1620
3474.34	1656
3475.56	1682
3476.78	1692
3478	1654
3479.21	1724
3480.43	1670
3481.65	1696
3482.86	1702
3484.08	1696
3485.3	1704
3486.51	1684
3487.73	1720
3488.94	1684
3490.16	1644
3491.37	1674
3492.59	1692
3493.8	1696
3495.02	1696
3496.23	1718
3497.45	1702
3498.66	1714
3499.87	1674
3501.09	1694
3502.3	1720
3503.51	1710
3504.72	1692
3505.94	1692
3507.15	1704
3508.36	1688
3509.57	1702
3510.79	1680
3512	1686
3513.21	1706
3514.42	1734
3515.63	1690
3516.84	1682
3518.05	1702
3519.26	1738
3520.47	1718
3521.68	1698
3522.89	1738
3524.1	1680
3525.31	1694
3526.52	1724
3527.73	1684
3528.94	1712
3530.14	1714
3531.35	1658
3532.56	1690
3533.77	1710
3534.98	1714
3536.18	1704
3537.39	1740
3538.6	1712
3539.81	1718
3541.01	1752
3542.22	1752
3543.42	1702
3544.63	1740
3545.84	1724
3547.04	1700
3548.25	1746
3549.45	1734
3550.66	1736
3551.86	1728
3553.07	1772
3554.27	1744
3555.47	1750
3556.68	1766
3557.88	1724
3559.09	1742
3560.29	1724
3561.49	1750
3562.7	1760
3563.9	1798
3565.1	1710
3566.3	1752
3567.51	1804
3568.71	1794
3569.91	1804
3571.11	1764
3572.31	1750
3573.51	1794
3574.71	1794
3575.92	1806
3577.12	1790
3578.32	1814
3579.52	1780
3580.72	1816
3581.92	1832
3583.12	1788
3584.31	1780
3585.51	1820
3586.71	1796
3587.91	1864
3589.11	1828
3590.31	1864
3591.51	1870
3592.71	1838
3593.9	1846
3595.1	1838
3596.3	1876
3597.49	1892
3598.69	1866
3599.89	1858
3601.08	1894
3602.28	1878
3603.48	1882
3604.67	1878
3605.87	1854
3607.06	1868
3608.26	1906
3609.45	1832
3610.65	1870
3611.84	1870
3613.04	1890
3614.23	1854
3615.43	1834
3616.62	1892
3617.82	1890
3619.01	1878
3620.2	1882
3621.39	1916
3622.59	1912
3623.78	1894
3624.97	1878
3626.17	1902
3627.36	1900
3628.55	1906
3629.74	1922
3630.93	1906
3632.12	1908
3633.31	1922
3634.51	1904
3635.7	1922
3636.89	1928
3638.08	1890
3639.27	1890
3640.46	1934
3641.65	1906
3642.84	1886
3644.03	1872
3645.22	1884
3646.4	1934
3647.59	1890
3648.78	1944
3649.97	1934
3651.16	1892
3652.35	1920
3653.53	1906
3654.72	1924
3655.91	1942
3657.1	1958
3658.28	1984
3659.47	1918
3660.66	1922
3661.84	1886
3663.03	1940
3664.21	1928
3665.4	1944
3666.59	1934
3667.77	1930
3668.96	1906
3670.14	1926
3671.33	1930
3672.51	1926
3673.69	1912
3674.88	1922
3676.06	1966
3677.25	1956
3678.43	1938
3679.61	1892
3680.8	1942
3681.98	1916
3683.16	1924
3684.34	1970
3685.53	1968
3686.71	1980
3687.89	1972
3689.07	1930
3690.25	1948
3691.44	1966
3692.62	1972
3693.8	1878
3694.98	1948
3696.16	1960
3697.34	2004
3698.52	1936
3699.7	1972
3700.88	1986
3702.06	1936
3703.24	1982
3704.42	1994
3705.6	1956
3706.78	1954
3707.96	1968
3709.13	2004
3710.31	1928
3711.49	2016
3712.67	2000
3713.85	1978
3715.02	1934
3716.2	1970
3717.38	1982
3718.56	2022
3719.73	2022
3720.91	2006
3722.08	2012
3723.26	2028
3724.44	2002
3725.61	2022
3726.79	2032
3727.96	2026
3729.14	2058
3730.31	2026
3731.49	2022
3732.66	2018
3733.84	2040
3735.01	2060
3736.18	2062
3737.36	2094
3738.53	2056
3739.7	2044
3740.88	2040
3742.05	2064
3743.22	2078
3744.4	2066
3745.57	2088
3746.74	2086
3747.91	2096
3749.09	2048
3750.26	2042
3751.43	2104
3752.6	2074
3753.77	2104
3754.94	2118
3756.11	2100
3757.28	2108
3758.45	2122
3759.62	2132
3760.79	2132
3761.96	2092
3763.13	2082
3764.3	2114
3765.47	2126
3766.64	2106
3767.81	2080
3768.98	2120
3770.14	2116
3771.31	2110
3772.48	2166
3773.65	2136
3774.82	2130
3775.98	2118
3777.15	2122
3778.32	2128
3779.48	2130
3780.65	2160
3781.82	2120
3782.98	2152
3784.15	2164
3785.32	2156
3786.48	2138
3787.65	2118
3788.81	2164
3789.98	2156
3791.14	2150
3792.3	2190
3793.47	2162
3794.63	2166
3795.8	2152
3796.96	2170
3798.13	2136
3799.29	2182
3800.45	2198
3801.61	2160
3802.78	2148
3803.94	2126
3805.1	2142
3806.27	2134
3807.43	2154
3808.59	2152
3809.75	2150
3810.91	2188
3812.07	2134
3813.24	2154
3814.4	2158
3815.56	2172
3816.72	2158
3817.88	2126
3819.04	2112
3820.2	2108
3821.36	2178
3822.52	2146
3823.68	2180
3824.84	2156
3826	2166
3827.15	2170
3828.31	2126
3829.47	2126
3830.63	2142
3831.79	2140
3832.95	2160
3834.1	2126
3835.26	2152
3836.42	2152
3837.58	2142
3838.73	2138
3839.89	2132
3841.04	2168
3842.2	2182
3843.36	2188
3844.51	2144
3845.67	2164
3846.83	2148
3847.98	2194
3849.14	2170
3850.29	2200
3851.45	2140
3852.6	2176
3853.76	2176
3854.91	2154
3856.06	2176
3857.22	2186
3858.37	2200
3859.52	2192
3860.68	2200
3861.83	2204
3862.98	2238
3864.14	2228
3865.29	2184
3866.44	2188
3867.59	2230
3868.75	2224
3869.9	2262
3871.05	2262
3872.2	2246
3873.35	2216
3874.5	2244
3875.65	2242
3876.8	2268
3877.95	2266
3879.1	2268
3880.25	2266
3881.4	2272
3882.55	2240
3883.7	2238
3884.85	2292
3886	2288
3887.15	2248
3888.3	2262
3889.45	2260
3890.6	2266
3891.75	2292
3892.89	2318
3894.04	2314
3895.19	2298
3896.34	2274
3897.48	2254
3898.63	2248
3899.78	2294
3900.92	2280
3902.07	2294
3903.22	2306
3904.36	2302
3905.51	2358
3906.65	2318
3907.8	2282
3908.94	2350
3910.09	2338
3911.23	2378
3912.38	2326
3913.52	2332
3914.67	2322
3915.81	2332
3916.96	2350
3918.1	2334
3919.24	2338
3920.39	2336
3921.53	2398
3922.67	2426
3923.82	2346
3924.96	2312
3926.1	2342
3927.24	2354
3928.39	2302
3929.53	2402
3930.67	2324
3931.81	2354
3932.95	2368
3934.09	2298
3935.24	2382
3936.38	2394
3937.52	2350
3938.66	2358
3939.8	2318
3940.94	2352
3942.08	2378
3943.22	2380
3944.36	2368
3945.5	2390
3946.63	2414
3947.77	2382
3948.91	2320
3950.05	2354
3951.19	2372
3952.33	2378
3953.47	2360
3954.6	2368
3955.74	2350
3956.88	2384
3958.02	2360
3959.15	2368
3960.29	2360
3961.43	2380
3962.56	2332
3963.7	2366
3964.84	2400
3965.97	2330
3967.11	2394
3968.24	2382
3969.38	2394
3970.51	2360
3971.65	2298
3972.78	2358
3973.92	2388
3975.05	2334
3976.19	2348
3977.32	2338
3978.45	2392
3979.59	2354
3980.72	2390
3981.85	2346
3982.99	2368
3984.12	2338
3985.25	2370
3986.39	2394
3987.52	2388
3988.65	2342
3989.78	2408
3990.91	2382
3992.05	2376
3993.18	2372
3994.31	2356
3995.44	2332
3996.57	2386
3997.7	2376
3998.83	2408
3999.96	2366
