#Acq. time (s)=	20
#Accumulations=	2
#Range (cm-¹)=	50...4000
#Windows=	3
#Autofocus=	Off
#AutoExposure=	Off
#Spike filter=	Multiple accum.
#Delay time (s)=	0
#Binning=	1
#Readout mode=	Signal
#DeNoise=	Off
#ICS correction=	Off
#Dark correction=	Off
#Inst. Process=	Off
#Instrument=	LabRAM HR Evol
#Detector=	Syncerity OE
#Objective=	x100_VIS
#Grating=	600 (500nm)
#ND Filter=	100%
#Laser=	532nm_Edge
#Hole=	100.021
#Range=	Visible
#Project=	Omar
#Sample=	
#Site=	21-09-22
#Title=	 CN-Sastre
#Remark=	
#Date=	21.09.2022 12:58
#Acquired=	21.09.2022 12:58:37
51.0918	52
52.9354	54
54.7807	48
56.6235	58
58.4681	76
60.3102	120
62.154	172
63.9954	232
65.8385	294
67.6792	356
69.5216	438
71.3615	588
73.2032	770
75.0424	934
76.8834	1038
78.7218	1162
80.5621	1284
82.3998	1484
84.2393	1606
86.0764	1642
87.9152	1690
89.7515	1810
91.5874	1862
93.4251	1810
95.2603	1750
97.0973	1732
98.9318	1736
100.766	1744
102.602	1768
104.435	1812
106.27	1876
108.103	1866
109.936	1846
111.77	1818
113.601	1802
115.433	1848
117.266	1838
119.096	1788
120.926	1830
122.758	1832
124.588	1764
126.417	1740
128.246	1768
130.076	1748
131.904	1712
133.732	1736
135.561	1770
137.388	1816
139.215	1720
141.041	1758
142.869	1780
144.695	1768
146.52	1650
148.345	1698
150.171	1756
151.995	1742
153.819	1788
155.642	1728
157.465	1730
159.29	1742
161.112	1658
162.934	1712
164.756	1636
166.577	1716
168.398	1652
170.219	1712
172.041	1686
173.861	1698
175.68	1630
177.499	1672
179.318	1618
181.137	1624
182.955	1646
184.772	1628
186.592	1666
188.409	1620
190.225	1628
192.042	1660
193.857	1644
195.673	1616
197.488	1594
199.303	1618
201.118	1620
202.932	1624
204.746	1610
206.559	1632
208.372	1596
210.185	1604
211.997	1586
213.809	1538
215.621	1614
217.432	1566
219.243	1548
221.054	1576
222.864	1544
224.674	1576
226.483	1514
228.293	1564
230.101	1516
231.91	1528
233.718	1588
235.524	1536
237.331	1452
239.138	1542
240.945	1556
242.751	1544
244.557	1560
246.363	1524
248.168	1516
249.971	1598
251.776	1556
253.58	1572
255.384	1532
257.188	1564
258.991	1562
260.792	1566
262.594	1582
264.396	1608
266.198	1558
268	1528
269.799	1564
271.599	1522
273.4	1526
275.2	1550
277	1536
278.797	1562
280.596	1526
282.395	1556
284.193	1540
285.989	1532
287.786	1546
289.584	1554
291.378	1578
293.175	1574
294.971	1574
296.765	1600
298.561	1536
300.356	1566
302.148	1554
303.943	1552
305.737	1598
307.529	1576
309.322	1626
311.115	1590
312.906	1566
314.698	1628
316.49	1632
318.28	1620
320.071	1560
321.86	1576
323.651	1622
325.441	1632
327.229	1636
329.019	1610
330.806	1586
332.595	1566
334.381	1646
336.17	1632
337.955	1614
339.743	1614
341.528	1564
343.315	1578
345.099	1582
346.885	1542
348.669	1604
350.455	1608
352.238	1604
354.022	1618
355.805	1648
357.589	1594
359.371	1552
361.154	1638
362.935	1632
364.718	1628
366.498	1650
368.278	1646
370.06	1644
371.839	1610
373.62	1626
375.398	1634
377.177	1680
378.956	1672
380.734	1684
382.513	1650
384.29	1680
386.067	1656
387.845	1638
389.621	1650
391.396	1706
393.173	1702
394.948	1684
396.723	1642
398.499	1702
400.273	1700
402.046	1682
403.819	1680
405.594	1598
407.366	1618
409.138	1612
410.91	1670
412.683	1646
414.454	1674
416.225	1664
417.995	1698
419.768	1632
421.537	1696
423.307	1648
425.076	1604
426.844	1630
428.615	1644
430.382	1644
432.15	1666
433.917	1610
435.684	1646
437.451	1618
439.219	1638
440.985	1714
442.751	1670
444.516	1700
446.281	1676
448.045	1656
449.81	1666
451.574	1704
453.337	1698
455.102	1682
456.865	1698
458.628	1672
460.39	1670
462.152	1660
463.913	1664
465.674	1692
467.435	1628
469.196	1692
470.956	1680
472.716	1702
474.475	1672
476.234	1642
477.993	1628
479.752	1658
481.51	1666
483.268	1682
485.025	1650
486.782	1650
488.539	1660
490.295	1572
492.051	1632
493.807	1628
495.563	1610
497.316	1592
499.07	1596
500.825	1684
502.579	1590
504.333	1618
506.086	1560
507.839	1602
509.592	1656
511.344	1610
513.094	1640
514.846	1638
516.597	1602
518.349	1580
520.099	1640
521.85	1670
523.598	1662
525.347	1742
527.097	1718
528.846	1754
530.595	1762
532.341	1850
534.089	1822
535.837	1872
537.584	1880
539.329	1900
541.076	2028
542.822	2026
544.568	2094
546.312	2110
548.057	2108
549.802	2142
551.545	2148
553.289	2172
555.033	2198
556.775	2188
558.518	2256
560.261	2186
562.002	2276
563.744	2202
565.487	2162
567.226	2142
568.968	2146
570.709	2134
572.447	2088
574.188	2056
575.926	2072
577.665	2072
579.405	2050
581.142	2016
582.88	2056
584.617	1966
586.355	1956
588.091	1934
589.828	1926
591.565	1858
593.3	1898
595.036	1892
596.77	1854
598.506	1732
600.239	1810
601.974	1796
603.707	1764
605.442	1744
607.174	1764
608.905	1700
610.639	1644
612.37	1636
614.103	1726
615.833	1620
617.565	1640
619.295	1620
621.026	1608
622.755	1590
624.484	1532
626.215	1590
627.943	1544
629.67	1486
631.4	1544
633.127	1504
634.856	1492
636.582	1492
638.308	1520
640.036	1520
641.762	1476
643.487	1398
645.214	1462
646.938	1440
648.662	1438
650.386	1388
652.112	1380
653.835	1324
655.558	1384
657.282	1334
659.005	1324
660.726	1320
662.448	1314
664.171	1272
665.892	1274
667.613	1270
669.333	1268
671.053	1246
672.774	1222
674.494	1194
676.213	1156
677.931	1182
679.649	1152
681.369	1170
683.087	1156
684.804	1130
686.521	1106
688.238	1126
689.954	1130
691.67	1080
693.386	1074
695.103	1084
696.818	1046
698.533	1060
700.247	1084
701.961	1020
703.675	1004
705.389	998
707.102	1024
708.814	964
710.527	976
712.239	962
713.951	902
715.662	914
717.373	902
719.084	936
720.795	938
722.505	942
724.215	980
725.924	952
727.633	922
729.342	914
731.051	918
732.759	896
734.467	912
736.174	886
737.882	914
739.589	934
741.295	916
742.999	914
744.705	950
746.411	940
748.116	926
749.821	920
751.526	968
753.23	938
754.934	952
756.636	912
758.34	950
760.043	974
761.745	958
763.448	928
765.148	992
766.85	928
768.551	920
770.252	962
771.953	978
773.652	966
775.352	954
777.052	998
778.751	978
780.448	980
782.147	920
783.846	984
785.544	972
787.24	932
788.938	946
790.635	936
792.33	940
794.027	932
795.723	936
797.417	944
799.113	922
800.808	914
802.501	938
804.196	918
805.89	900
807.582	900
809.276	956
810.968	916
812.661	864
814.354	848
816.044	866
817.736	830
819.426	876
821.118	868
822.807	850
824.498	800
826.186	824
827.877	780
829.565	832
831.254	820
832.942	794
834.631	782
836.317	748
838.006	800
839.692	780
841.38	758
843.065	764
844.752	730
846.437	752
848.123	750
849.808	774
851.493	716
853.177	740
854.86	730
856.545	726
858.228	738
859.912	738
861.594	740
863.276	758
864.959	746
866.64	768
868.321	728
870.003	738
871.683	756
873.363	742
875.044	750
876.723	758
878.402	740
880.083	766
881.761	752
883.439	760
885.116	772
886.795	762
888.472	768
890.149	754
891.825	754
893.503	752
895.179	792
896.854	768
898.529	790
900.204	770
901.88	784
903.555	816
905.228	824
906.902	828
908.575	812
910.25	832
911.922	818
913.595	852
915.266	844
916.938	856
918.609	866
920.28	906
921.951	886
923.623	928
925.293	928
926.963	910
928.633	932
930.302	972
931.97	938
933.639	918
935.307	984
936.975	988
938.642	986
940.31	1016
941.977	1022
943.643	1002
945.31	1006
946.976	1048
948.641	1022
950.307	1038
951.972	1046
953.636	1068
955.301	1038
956.965	1078
958.629	1062
960.292	1030
961.955	1038
963.618	1042
965.279	1006
966.941	1014
968.603	1008
970.265	1060
971.926	1010
973.587	1066
975.248	1044
976.908	1080
978.566	1092
980.226	1078
981.886	1064
983.545	1090
985.204	1084
986.86	1100
988.519	1098
990.177	1110
991.834	1124
993.491	1154
995.147	1122
996.803	1120
998.46	1124
1000.12	1132
1001.77	1158
1003.43	1164
1005.08	1168
1006.73	1118
1008.39	1198
1010.04	1160
1011.7	1172
1013.35	1178
1015	1216
1016.65	1264
1018.3	1246
1019.96	1260
1021.61	1316
1023.26	1300
1024.91	1302
1026.56	1320
1028.21	1344
1029.86	1374
1031.51	1360
1033.16	1354
1034.81	1416
1036.46	1372
1038.1	1464
1039.75	1474
1041.4	1452
1043.05	1452
1044.69	1538
1046.34	1510
1047.99	1578
1049.63	1494
1051.28	1604
1052.92	1654
1054.57	1590
1056.21	1644
1057.86	1670
1059.5	1662
1061.14	1722
1062.79	1742
1064.43	1786
1066.07	1814
1067.72	1796
1069.36	1868
1071	1858
1072.64	1860
1074.28	1944
1075.92	1996
1077.57	1942
1079.2	1998
1080.84	2022
1082.48	2068
1084.12	2028
1085.76	2054
1087.4	2078
1089.04	2146
1090.68	2172
1092.32	2116
1093.95	2116
1095.59	2180
1097.22	2096
1098.86	2106
1100.5	2102
1102.13	2010
1103.77	2022
1105.4	2004
1107.04	2044
1108.67	1990
1110.31	1926
1111.94	1902
1113.58	1900
1115.21	1806
1116.84	1790
1118.47	1790
1120.1	1720
1121.74	1720
1123.37	1684
1125	1618
1126.63	1630
1128.26	1562
1129.89	1616
1131.52	1540
1133.15	1520
1134.78	1512
1136.41	1436
1138.04	1414
1139.67	1406
1141.3	1394
1142.92	1358
1144.55	1346
1146.18	1298
1147.8	1280
1149.43	1304
1151.06	1238
1152.68	1228
1154.31	1238
1155.93	1166
1157.56	1176
1159.18	1110
1160.81	1138
1162.43	1114
1164.06	1120
1165.68	1160
1167.3	1100
1168.93	1062
1170.55	1042
1172.17	1038
1173.79	1040
1175.41	1034
1177.03	1030
1178.66	984
1180.28	1002
1181.9	976
1183.52	948
1185.14	928
1186.75	932
1188.37	918
1189.99	934
1191.61	918
1193.23	936
1194.85	882
1196.46	856
1198.08	890
1199.7	878
1201.31	862
1202.93	816
1204.55	814
1206.16	832
1207.78	818
1209.39	808
1211.01	804
1212.62	804
1214.24	816
1215.85	768
1217.46	828
1219.08	764
1220.69	766
1222.3	778
1223.91	738
1225.53	748
1227.14	732
1228.75	760
1230.36	738
1231.97	750
1233.58	726
1235.19	728
1236.8	730
1238.41	726
1240.02	702
1241.63	742
1243.23	730
1244.84	710
1246.45	726
1248.06	682
1249.67	714
1251.27	724
1252.88	684
1254.48	718
1256.09	676
1257.7	690
1259.3	720
1260.91	720
1262.51	712
1264.12	746
1265.72	730
1267.32	682
1268.93	748
1270.53	710
1272.13	708
1273.73	708
1275.34	728
1276.94	718
1278.54	724
1280.14	718
1281.74	714
1283.35	696
1284.94	724
1286.54	714
1288.15	732
1289.74	750
1291.34	740
1292.94	750
1294.54	754
1296.14	736
1297.74	766
1299.33	756
1300.93	752
1302.53	742
1304.12	742
1305.72	720
1307.32	726
1308.91	778
1310.51	746
1312.1	776
1313.7	706
1315.29	762
1316.89	766
1318.48	768
1320.07	766
1321.67	770
1323.26	758
1324.85	784
1326.45	776
1328.04	790
1329.63	804
1331.22	822
1332.81	800
1334.4	764
1335.99	806
1337.58	832
1339.17	806
1340.77	808
1342.35	810
1343.94	830
1345.53	794
1347.12	818
1348.71	840
1350.3	814
1351.88	822
1353.47	836
1355.06	804
1356.64	836
1358.23	812
1359.82	810
1361.4	838
1362.99	830
1364.57	850
1366.16	816
1367.74	818
1369.33	804
1370.91	812
1372.49	786
1374.08	780
1375.66	776
1377.24	786
1378.82	728
1380.41	772
1381.99	736
1383.57	730
1385.15	780
1386.73	736
1388.31	776
1389.89	796
1391.47	786
1393.05	752
1394.63	756
1396.21	720
1397.79	730
1399.37	704
1400.95	756
1402.52	748
1404.1	750
1405.68	734
1407.25	724
1408.83	744
1410.41	728
1411.98	718
1413.56	734
1415.13	730
1416.71	734
1418.29	700
1419.86	750
1421.43	774
1423.01	734
1424.58	744
1426.15	718
1427.73	754
1429.3	736
1430.87	720
1432.44	764
1434.02	744
1435.59	762
1437.16	742
1438.73	734
1440.3	744
1441.87	756
1443.44	736
1445.01	760
1446.58	736
1448.15	724
1449.72	756
1451.29	738
1452.85	782
1454.42	756
1455.99	750
1457.56	726
1459.12	748
1460.69	738
1462.26	730
1463.82	722
1465.39	726
1466.95	726
1468.52	740
1470.08	728
1471.65	728
1473.21	758
1474.78	746
1476.34	720
1477.9	756
1479.47	750
1481.03	740
1482.59	758
1484.16	746
1485.72	722
1487.28	728
1488.84	772
1490.4	758
1491.96	750
1493.52	746
1495.08	704
1496.64	742
1498.2	750
1499.76	728
1501.32	754
1502.88	758
1504.44	758
1506	756
1507.55	764
1509.11	752
1510.67	746
1512.22	762
1513.78	732
1515.34	744
1516.89	756
1518.45	782
1520.01	764
1521.56	742
1523.11	734
1524.67	764
1526.22	734
1527.78	774
1529.33	750
1530.88	772
1532.44	758
1533.99	760
1535.54	740
1537.09	792
1538.65	768
1540.2	772
1541.75	746
1543.3	788
1544.85	772
1546.4	772
1547.95	780
1549.5	784
1551.05	800
1552.6	798
1554.15	816
1555.7	756
1557.25	764
1558.79	794
1560.34	796
1561.89	808
1563.43	770
1564.98	772
1566.53	810
1568.08	782
1569.62	818
1571.17	806
1572.71	778
1574.26	824
1575.8	838
1577.35	800
1578.89	808
1580.43	844
1581.98	840
1583.52	832
1585.06	834
1586.61	868
1588.15	836
1589.69	826
1591.23	866
1592.77	828
1594.32	808
1595.86	834
1597.4	836
1598.94	806
1600.48	846
1602.02	828
1603.56	834
1605.1	814
1606.64	813.244
1608.18	799.746
1609.71	805.38
1611.25	772.574
1612.79	779.838
1614.33	814.817
1615.86	803.868
1617.4	794.872
1618.94	782.378
1620.47	784.318
1622.01	784.888
1623.55	752.029
1625.08	759.657
1626.62	756.791
1628.15	772.473
1629.69	769.272
1631.22	739.069
1632.75	741.037
1634.29	727.504
1635.82	722.68
1637.35	726.303
1638.89	733.16
1640.42	708.35
1641.95	687.289
1643.48	739.187
1645.02	688.301
1646.55	726.008
1648.08	701.351
1649.61	701.525
1651.14	691.003
1652.67	693.626
1654.2	707.529
1655.73	715.186
1657.26	723.73
1658.79	705.487
1660.32	679.652
1661.84	686.629
1663.37	690.31
1664.9	686.95
1666.43	691.974
1667.96	682.918
1669.48	710.97
1671.01	682.259
1672.54	687.486
1674.06	685.151
1675.59	669.487
1677.11	698.571
1678.64	706.038
1680.16	687.257
1681.69	683.143
1683.21	689.592
1684.74	694.035
1686.26	678.729
1687.79	675.109
1689.31	651.172
1690.83	672.499
1692.35	677.909
1693.88	673.374
1695.4	667.037
1696.92	668.742
1698.44	655.143
1699.96	663.909
1701.48	669.498
1703.01	643.048
1704.53	647.157
1706.05	653.141
1707.57	648.839
1709.09	659.64
1710.6	653.496
1712.12	658.409
1713.64	678.04
1715.16	659.554
1716.68	654.477
1718.2	648.055
1719.71	659.825
1721.23	648.357
1722.75	669.41
1724.27	643.685
1725.78	640.588
1727.3	651.415
1728.81	630.587
1730.33	607.107
1731.84	637.246
1733.36	635.724
1734.88	608.15
1736.39	642.269
1737.9	613.658
1739.42	638.316
1740.93	611.862
1742.44	625.486
1743.96	602.295
1745.47	609.693
1746.98	604.015
1748.49	627.602
1750.01	617.025
1751.52	599.232
1753.03	586.988
1754.54	640.87
1756.05	615.431
1757.56	563.134
1757.63	560
1759.14	618
1760.66	612
1762.18	614
1763.69	590
1765.21	582
1766.72	586
1768.24	608
1769.75	604
1771.27	624
1772.78	596
1774.3	600
1775.81	616
1777.32	576
1778.84	576
1780.35	604
1781.86	618
1783.38	616
1784.89	588
1786.4	632
1787.91	594
1789.42	610
1790.93	604
1792.44	610
1793.95	616
1795.47	634
1796.98	606
1798.48	632
1799.99	626
1801.5	636
1803.01	582
1804.52	624
1806.03	578
1807.54	556
1809.04	614
1810.55	610
1812.06	584
1813.57	598
1815.07	640
1816.58	632
1818.08	642
1819.59	610
1821.09	616
1822.6	580
1824.11	608
1825.61	576
1827.11	612
1828.62	604
1830.12	620
1831.63	604
1833.13	608
1834.63	604
1836.13	608
1837.64	592
1839.14	606
1840.64	610
1842.14	602
1843.64	646
1845.14	608
1846.64	582
1848.14	620
1849.64	624
1851.14	598
1852.64	616
1854.14	632
1855.64	598
1857.14	604
1858.64	626
1860.14	608
1861.64	604
1863.13	566
1864.63	596
1866.13	608
1867.63	582
1869.12	638
1870.62	610
1872.11	596
1873.61	588
1875.1	616
1876.6	622
1878.09	606
1879.59	626
1881.08	612
1882.58	606
1884.07	628
1885.56	594
1887.06	588
1888.55	620
1890.04	618
1891.54	618
1893.03	592
1894.52	642
1896.01	608
1897.5	610
1898.99	606
1900.48	616
1901.97	630
1903.46	618
1904.96	616
1906.44	626
1907.93	614
1909.42	612
1910.91	616
1912.4	598
1913.89	644
1915.38	650
1916.86	688
1918.35	676
1919.84	692
1921.32	620
1922.81	626
1924.3	620
1925.78	626
1927.27	634
1928.76	596
1930.24	618
1931.72	652
1933.21	608
1934.69	596
1936.18	600
1937.66	592
1939.15	594
1940.63	610
1942.11	586
1943.59	610
1945.08	632
1946.56	610
1948.04	622
1949.52	620
1951	618
1952.48	602
1953.97	618
1955.45	620
1956.93	606
1958.41	638
1959.89	624
1961.37	618
1962.85	606
1964.32	588
1965.8	628
1967.28	602
1968.76	610
1970.24	628
1971.71	630
1973.19	614
1974.67	618
1976.15	618
1977.62	608
1979.1	614
1980.57	610
1982.05	616
1983.53	596
1985	632
1986.48	626
1987.95	644
1989.42	606
1990.9	578
1992.37	610
1993.85	628
1995.32	612
1996.79	620
1998.26	632
1999.74	628
2001.21	616
2002.68	594
2004.15	632
2005.62	630
2007.09	642
2008.56	612
2010.03	602
2011.51	590
2012.98	622
2014.44	626
2015.92	594
2017.38	600
2018.85	614
2020.32	612
2021.79	634
2023.26	624
2024.73	590
2026.19	634
2027.66	618
2029.13	590
2030.59	628
2032.06	618
2033.53	618
2034.99	628
2036.46	606
2037.92	596
2039.39	630
2040.85	630
2042.32	622
2043.78	618
2045.25	646
2046.71	622
2048.17	620
2049.64	618
2051.1	638
2052.56	628
2054.02	602
2055.49	628
2056.95	616
2058.41	628
2059.87	632
2061.33	622
2062.79	600
2064.25	622
2065.71	614
2067.17	606
2068.63	606
2070.09	594
2071.55	636
2073.01	642
2074.47	628
2075.93	628
2077.39	634
2078.84	630
2080.3	620
2081.76	638
2083.22	608
2084.67	618
2086.13	652
2087.59	632
2089.04	618
2090.5	650
2091.95	628
2093.41	618
2094.86	628
2096.32	630
2097.77	642
2099.23	634
2100.68	614
2102.13	642
2103.59	584
2105.04	606
2106.49	622
2107.95	608
2109.4	612
2110.85	594
2112.3	630
2113.75	608
2115.21	610
2116.66	618
2118.11	624
2119.56	618
2121.01	632
2122.46	620
2123.91	624
2125.36	634
2126.8	626
2128.25	642
2129.7	628
2131.15	600
2132.6	622
2134.05	628
2135.49	596
2136.94	626
2138.39	614
2139.83	626
2141.28	656
2142.73	626
2144.17	622
2145.62	608
2147.06	652
2148.51	620
2149.95	638
2151.4	616
2152.84	646
2154.29	612
2155.73	620
2157.17	612
2158.62	582
2160.06	634
2161.5	638
2162.95	618
2164.39	622
2165.83	632
2167.27	664
2168.71	614
2170.15	598
2171.59	612
2173.04	618
2174.48	628
2175.92	628
2177.36	638
2178.79	626
2180.24	668
2181.67	600
2183.11	626
2184.55	624
2185.99	604
2187.43	602
2188.86	626
2190.3	600
2191.74	628
2193.18	620
2194.61	602
2196.05	630
2197.49	666
2198.92	640
2200.36	612
2201.79	630
2203.23	630
2204.66	602
2206.1	600
2207.53	612
2208.97	610
2210.4	614
2211.83	618
2213.27	624
2214.7	640
2216.13	614
2217.57	620
2219	614
2220.43	608
2221.86	618
2223.29	588
2224.72	618
2226.15	634
2227.59	630
2229.02	620
2230.45	594
2231.88	612
2233.31	612
2234.74	636
2236.16	612
2237.59	618
2239.02	594
2240.45	610
2241.88	602
2243.31	632
2244.73	584
2246.16	632
2247.59	610
2249.01	588
2250.44	616
2251.87	612
2253.29	594
2254.72	570
2256.15	614
2257.57	598
2259	614
2260.42	614
2261.84	594
2263.27	586
2264.69	608
2266.12	606
2267.54	600
2268.96	608
2270.39	626
2271.81	568
2273.23	598
2274.65	602
2276.07	612
2277.5	626
2278.92	622
2280.34	640
2281.76	642
2283.18	616
2284.6	598
2286.02	634
2287.44	612
2288.86	618
2290.28	596
2291.7	628
2293.12	602
2294.54	618
2295.95	620
2297.37	644
2298.79	626
2300.21	606
2301.62	644
2303.04	654
2304.46	620
2305.88	624
2307.29	594
2308.71	660
2310.12	644
2311.54	612
2312.95	646
2314.37	648
2315.78	610
2317.2	628
2318.61	622
2320.02	638
2321.44	638
2322.85	666
2324.27	646
2325.68	648
2327.09	640
2328.5	672
2329.92	702
2331.33	688
2332.74	646
2334.15	670
2335.56	664
2336.97	648
2338.38	664
2339.79	664
2341.2	650
2342.61	628
2344.02	650
2345.43	682
2346.84	694
2348.25	672
2349.66	656
2351.07	674
2352.48	690
2353.88	664
2355.29	666
2356.7	674
2358.11	642
2359.51	728
2360.92	668
2362.32	692
2363.73	678
2365.14	678
2366.54	690
2367.95	718
2369.35	688
2370.76	726
2372.16	680
2373.57	740
2374.97	678
2376.37	716
2377.78	676
2379.18	718
2380.58	712
2381.99	704
2383.39	736
2384.79	746
2386.19	698
2387.59	716
2389	716
2390.4	716
2391.8	698
2393.2	724
2394.6	696
2396	710
2397.4	742
2398.8	730
2400.2	726
2401.6	748
2403	742
2404.39	706
2405.79	714
2407.19	754
2408.59	722
2409.99	728
2411.38	738
2412.78	744
2414.18	776
2415.57	792
2416.97	732
2418.37	746
2419.76	734
2421.16	748
2422.55	746
2423.95	740
2425.34	788
2426.74	766
2428.13	758
2429.53	766
2430.92	778
2432.31	756
2433.71	748
2435.1	754
2436.49	722
2437.89	756
2439.28	784
2440.67	762
2442.06	744
2443.45	746
2444.85	756
2446.24	760
2447.63	746
2449.02	738
2450.41	774
2451.8	758
2453.19	748
2454.58	756
2455.97	724
2457.36	752
2458.75	782
2460.13	778
2461.52	752
2462.91	752
2464.3	788
2465.69	758
2467.07	788
2468.46	756
2469.85	760
2471.24	738
2472.62	748
2474.01	728
2475.39	734
2476.78	710
2478.16	754
2479.55	778
2480.94	734
2482.32	722
2483.7	762
2485.09	762
2486.47	778
2487.85	754
2489.24	772
2490.62	766
2492	744
2493.39	780
2494.77	734
2496.15	722
2497.53	758
2498.92	724
2500.3	758
2501.68	734
2503.06	764
2504.44	782
2505.82	740
2507.2	724
2508.58	770
2509.96	738
2511.34	720
2512.72	748
2514.1	736
2515.48	738
2516.85	730
2518.23	726
2519.61	732
2520.99	742
2522.37	738
2523.74	768
2525.12	762
2526.5	738
2527.87	760
2529.25	762
2530.63	736
2532	760
2533.38	722
2534.75	778
2536.13	754
2537.5	800
2538.88	748
2540.25	780
2541.62	768
2543	762
2544.37	758
2545.75	762
2547.12	740
2548.49	762
2549.86	750
2551.24	774
2552.61	758
2553.98	724
2555.35	742
2556.72	750
2558.09	750
2559.47	732
2560.84	724
2562.21	736
2563.57	754
2564.95	756
2566.32	756
2567.68	764
2569.05	754
2570.42	760
2571.79	756
2573.16	742
2574.53	780
2575.9	758
2577.26	752
2578.63	740
2580	766
2581.36	758
2582.73	708
2584.1	728
2585.46	762
2586.83	760
2588.19	744
2589.56	748
2590.93	740
2592.29	746
2593.66	766
2595.02	764
2596.39	808
2597.75	744
2599.11	810
2600.47	760
2601.84	774
2603.2	782
2604.56	736
2605.93	776
2607.29	774
2608.65	776
2610.01	798
2611.38	752
2612.74	778
2614.1	766
2615.46	744
2616.82	792
2618.18	772
2619.54	764
2620.9	780
2622.26	782
2623.62	754
2624.98	758
2626.34	792
2627.69	776
2629.05	782
2630.41	770
2631.77	780
2633.13	806
2634.48	758
2635.84	770
2637.2	790
2638.56	782
2639.91	804
2641.27	782
2642.62	800
2643.98	800
2645.33	784
2646.69	794
2648.05	788
2649.4	787
2650.75	786
2652.11	786
2653.46	802
2654.82	788
2656.17	790
2657.52	796
2658.88	792
2660.23	792
2661.58	812
2662.94	800
2664.29	820
2665.64	830
2666.99	806
2668.34	776
2669.69	818
2671.04	798
2672.39	818
2673.75	836
2675.09	808
2676.45	794
2677.79	828
2679.14	794
2680.49	854
2681.84	792
2683.19	854
2684.54	784
2685.89	832
2687.24	824
2688.58	774
2689.93	844
2691.28	790
2692.63	842
2693.97	830
2695.32	850
2696.67	816
2698.01	816
2699.36	808
2700.7	814
2702.05	826
2703.39	842
2704.74	812
2706.08	820
2707.43	812
2708.77	822
2710.12	818
2711.46	802
2712.8	828
2714.15	842
2715.49	798
2716.83	828
2718.17	820
2719.52	842
2720.86	858
2722.2	806
2723.54	812
2724.88	812
2726.22	798
2727.57	832
2728.91	828
2730.25	808
2731.59	856
2732.93	838
2734.27	850
2735.61	814
2736.95	830
2738.28	844
2739.62	814
2740.96	836
2742.3	832
2743.64	814
2744.98	830
2746.31	860
2747.65	838
2748.99	840
2750.33	824
2751.66	826
2753	822
2754.33	846
2755.67	826
2757.01	816
2758.34	836
2759.68	834
2761.01	822
2762.35	814
2763.68	830
2765.01	794
2766.35	840
2767.68	822
2769.02	872
2770.35	822
2771.68	832
2773.02	844
2774.35	818
2775.68	854
2777.01	866
2778.35	832
2779.68	852
2781.01	848
2782.34	886
2783.67	874
2785	848
2786.33	844
2787.66	864
2788.99	880
2790.32	840
2791.65	848
2792.98	852
2794.31	864
2795.64	860
2796.97	844
2798.3	848
2799.62	890
2800.95	858
2802.28	866
2803.61	856
2804.93	866
2806.26	892
2807.59	852
2808.91	846
2810.24	846
2811.57	840
2812.89	864
2814.22	874
2815.54	878
2816.87	878
2818.19	864
2819.52	908
2820.84	888
2822.17	862
2823.49	868
2824.81	860
2826.14	886
2827.46	888
2828.78	898
2830.11	866
2831.43	886
2832.75	830
2834.07	892
2835.39	878
2836.72	882
2838.04	874
2839.36	882
2840.68	872
2842	898
2843.32	894
2844.64	880
2845.96	902
2847.28	928
2848.6	894
2849.92	864
2851.24	936
2852.56	920
2853.88	932
2855.19	894
2856.51	928
2857.83	904
2859.15	858
2860.46	918
2861.78	914
2863.1	890
2864.42	896
2865.73	916
2867.05	896
2868.36	918
2869.68	922
2871	888
2872.31	944
2873.63	930
2874.94	908
2876.26	920
2877.57	878
2878.88	908
2880.2	898
2881.51	944
2882.82	936
2884.14	912
2885.45	934
2886.76	900
2888.08	942
2889.39	946
2890.7	904
2892.01	920
2893.33	940
2894.64	900
2895.95	920
2897.26	942
2898.57	930
2899.88	922
2901.19	962
2902.5	920
2903.81	922
2905.12	918
2906.43	952
2907.74	938
2909.05	906
2910.35	980
2911.66	916
2912.97	932
2914.28	932
2915.59	964
2916.89	958
2918.2	957.949
2919.51	927.743
2920.82	959.276
2922.12	978.341
2923.43	950.947
2924.73	979.804
2926.04	974.173
2927.35	980.978
2928.65	937.75
2929.96	948.178
2931.26	961.36
2932.57	950.98
2933.87	947.709
2935.17	982.662
2936.48	929.724
2937.78	955.449
2939.09	965.217
2940.39	942.343
2941.69	963.869
2943	968.377
2944.3	940.228
2945.6	973.856
2946.9	972.005
2948.2	979.651
2949.51	962.078
2950.81	995.909
2952.11	967.956
2953.41	964.796
2954.71	986.058
2956.01	967.642
2957.31	967.179
2958.61	957.564
2959.91	962.132
2961.21	980.868
2962.51	958.808
2963.81	991.998
2965.11	976.494
2966.41	975.415
2967.71	990.5
2969.01	977.144
2970.3	987.018
2971.6	977.456
2972.9	985.973
2974.2	993.599
2975.49	969.257
2976.79	964.686
2978.09	1004.43
2979.39	985.105
2980.68	981.362
2981.98	985.875
2983.27	988.054
2984.57	992.638
2985.86	996.372
2987.16	983.584
2988.45	985.438
2989.75	1008.97
2991.04	982.962
2992.34	968.989
2993.63	1006.71
2994.93	986.547
2996.22	991.507
2997.51	981.837
2998.81	1015.33
3000.1	996.913
3001.39	1017.51
3002.68	1001.16
3003.98	1006.67
3005.27	1017.4
3006.56	1020.3
3007.85	999.725
3009.14	1013.92
3010.43	1014.4
3011.72	986.919
3013.01	1015.82
3014.31	1011.65
3015.59	991.132
3016.89	1020.39
3018.18	997.899
3019.47	1021.71
3020.75	1023.45
3022.04	1017.42
3023.33	1018.48
3024.62	1026.92
3025.91	1009.24
3027.2	1015.15
3028.48	1025.15
3029.77	1034.77
3031.06	1007.56
3032.35	995.203
3033.64	1023.31
3034.92	1041.51
3036.21	1055.73
3037.5	1048.93
3038.78	1049.14
3040.07	1023.76
3041.35	1044.73
3042.64	1040.39
3043.92	1022.88
3045.21	1050.44
3046.49	1066.02
3047.78	1072.35
3048.11	1074
3049.4	1042
3050.69	1068
3051.98	1080
3053.27	1064
3054.56	1082
3055.85	1042
3057.14	1072
3058.43	1076
3059.72	1080
3061.01	1056
3062.29	1042
3063.58	1060
3064.87	1052
3066.16	1058
3067.44	1062
3068.73	1068
3070.02	1078
3071.31	1052
3072.59	1108
3073.88	1098
3075.16	1046
3076.45	1072
3077.73	1068
3079.02	1072
3080.31	1082
3081.59	1078
3082.87	1038
3084.16	1096
3085.44	1086
3086.73	1086
3088.01	1106
3089.29	1126
3090.58	1094
3091.86	1070
3093.14	1070
3094.43	1076
3095.71	1094
3096.99	1108
3098.27	1100
3099.55	1094
3100.84	1078
3102.12	1046
3103.4	1080
3104.68	1122
3105.96	1108
3107.24	1136
3108.52	1104
3109.8	1112
3111.08	1134
3112.36	1146
3113.64	1076
3114.92	1130
3116.2	1094
3117.48	1104
3118.75	1118
3120.03	1156
3121.31	1114
3122.59	1118
3123.87	1122
3125.14	1140
3126.42	1150
3127.7	1126
3128.97	1136
3130.25	1136
3131.53	1152
3132.8	1150
3134.08	1174
3135.35	1186
3136.63	1152
3137.9	1140
3139.18	1144
3140.45	1170
3141.73	1174
3143	1140
3144.28	1196
3145.55	1174
3146.82	1172
3148.1	1160
3149.37	1188
3150.64	1160
3151.92	1168
3153.19	1168
3154.46	1198
3155.73	1188
3157.01	1172
3158.28	1194
3159.55	1178
3160.82	1168
3162.09	1212
3163.36	1194
3164.63	1206
3165.9	1200
3167.17	1210
3168.44	1190
3169.71	1210
3170.98	1208
3172.25	1170
3173.52	1196
3174.79	1206
3176.06	1166
3177.32	1236
3178.59	1142
3179.86	1224
3181.13	1222
3182.4	1198
3183.66	1230
3184.93	1228
3186.2	1220
3187.46	1238
3188.73	1244
3190	1248
3191.26	1220
3192.53	1234
3193.79	1244
3195.06	1208
3196.32	1248
3197.59	1216
3198.85	1202
3200.12	1216
3201.38	1214
3202.65	1230
3203.91	1184
3205.17	1262
3206.44	1260
3207.7	1244
3208.96	1232
3210.23	1264
3211.49	1244
3212.75	1258
3214.01	1238
3215.27	1230
3216.54	1264
3217.8	1212
3219.06	1260
3220.32	1240
3221.58	1252
3222.84	1208
3224.1	1214
3225.36	1276
3226.62	1266
3227.88	1258
3229.14	1266
3230.4	1256
3231.66	1288
3232.92	1268
3234.18	1302
3235.44	1244
3236.69	1268
3237.95	1256
3239.21	1242
3240.47	1238
3241.72	1282
3242.98	1272
3244.24	1268
3245.5	1248
3246.75	1260
3248.01	1310
3249.26	1286
3250.52	1296
3251.78	1312
3253.03	1268
3254.29	1242
3255.54	1316
3256.8	1304
3258.05	1268
3259.3	1270
3260.56	1276
3261.81	1306
3263.07	1274
3264.32	1294
3265.57	1284
3266.83	1292
3268.08	1312
3269.33	1288
3270.58	1306
3271.84	1320
3273.09	1352
3274.34	1294
3275.59	1328
3276.84	1322
3278.09	1328
3279.35	1358
3280.6	1334
3281.85	1368
3283.1	1344
3284.35	1346
3285.6	1358
3286.85	1326
3288.1	1360
3289.35	1340
3290.59	1348
3291.84	1380
3293.09	1344
3294.34	1338
3295.59	1388
3296.84	1382
3298.08	1374
3299.33	1340
3300.58	1354
3301.83	1374
3303.07	1348
3304.32	1408
3305.57	1410
3306.81	1326
3308.06	1418
3309.3	1374
3310.55	1382
3311.79	1382
3313.04	1370
3314.29	1366
3315.53	1414
3316.77	1354
3318.02	1368
3319.26	1416
3320.51	1440
3321.75	1412
3322.99	1368
3324.24	1412
3325.48	1422
3326.72	1406
3327.97	1410
3329.21	1394
3330.45	1408
3331.69	1426
3332.93	1400
3334.18	1386
3335.42	1450
3336.66	1472
3337.9	1426
3339.14	1438
3340.38	1392
3341.62	1388
3342.86	1436
3344.1	1378
3345.34	1412
3346.58	1452
3347.82	1422
3349.06	1460
3350.3	1408
3351.54	1450
3352.77	1432
3354.01	1422
3355.25	1418
3356.49	1440
3357.73	1466
3358.96	1426
3360.2	1458
3361.44	1456
3362.67	1426
3363.91	1454
3365.15	1452
3366.38	1430
3367.62	1480
3368.85	1428
3370.09	1482
3371.33	1468
3372.56	1452
3373.8	1450
3375.03	1454
3376.26	1468
3377.5	1484
3378.73	1438
3379.97	1464
3381.2	1482
3382.43	1488
3383.67	1470
3384.9	1468
3386.13	1434
3387.37	1466
3388.6	1478
3389.83	1482
3391.06	1460
3392.29	1464
3393.52	1460
3394.76	1422
3395.99	1520
3397.22	1476
3398.45	1482
3399.68	1500
3400.91	1490
3402.14	1460
3403.37	1514
3404.6	1492
3405.83	1518
3407.06	1478
3408.29	1470
3409.51	1532
3410.74	1498
3411.97	1520
3413.2	1540
3414.43	1530
3415.66	1520
3416.88	1512
3418.11	1522
3419.34	1510
3420.56	1526
3421.79	1542
3423.02	1536
3424.24	1562
3425.47	1546
3426.7	1520
3427.92	1548
3429.15	1546
3430.37	1564
3431.6	1566
3432.82	1548
3434.05	1518
3435.27	1560
3436.5	1550
3437.72	1582
3438.94	1580
3440.17	1596
3441.39	1594
3442.61	1542
3443.84	1578
3445.06	1594
3446.28	1580
3447.51	1568
3448.73	1568
3449.95	1574
3451.17	1544
3452.39	1592
3453.61	1630
3454.83	1588
3456.06	1652
3457.28	1612
3458.5	1590
3459.72	1646
3460.94	1646
3462.16	1626
3463.38	1532
3464.6	1624
3465.82	1662
3467.04	1630
3468.25	1638
3469.47	1622
3470.69	1630
3471.91	1648
3473.13	1622
3474.34	1664
3475.56	1644
3476.78	1654
3478	1666
3479.21	1672
3480.43	1614
3481.65	1668
3482.86	1642
3484.08	1650
3485.3	1646
3486.51	1688
3487.73	1686
3488.94	1638
3490.16	1656
3491.37	1676
3492.59	1646
3493.8	1668
3495.02	1646
3496.23	1662
3497.45	1624
3498.66	1662
3499.87	1682
3501.09	1700
3502.3	1702
3503.51	1620
3504.72	1682
3505.94	1640
3507.15	1646
3508.36	1686
3509.57	1658
3510.79	1676
3512	1674
3513.21	1664
3514.42	1656
3515.63	1610
3516.84	1668
3518.05	1690
3519.26	1634
3520.47	1652
3521.68	1734
3522.89	1668
3524.1	1646
3525.31	1644
3526.52	1686
3527.73	1692
3528.94	1664
3530.14	1660
3531.35	1702
3532.56	1592
3533.77	1640
3534.98	1688
3536.18	1696
3537.39	1676
3538.6	1728
3539.81	1682
3541.01	1710
3542.22	1650
3543.42	1684
3544.63	1722
3545.84	1668
3547.04	1702
3548.25	1646
3549.45	1716
3550.66	1664
3551.86	1684
3553.07	1716
3554.27	1742
3555.47	1704
3556.68	1716
3557.88	1696
3559.09	1746
3560.29	1736
3561.49	1726
3562.7	1750
3563.9	1756
3565.1	1736
3566.3	1718
3567.51	1738
3568.71	1746
3569.91	1722
3571.11	1732
3572.31	1780
3573.51	1752
3574.71	1744
3575.92	1770
3577.12	1744
3578.32	1788
3579.52	1758
3580.72	1744
3581.92	1784
3583.12	1804
3584.31	1788
3585.51	1762
3586.71	1764
3587.91	1788
3589.11	1774
3590.31	1812
3591.51	1804
3592.71	1818
3593.9	1786
3595.1	1826
3596.3	1830
3597.49	1830
3598.69	1810
3599.89	1796
3601.08	1772
3602.28	1830
3603.48	1816
3604.67	1834
3605.87	1820
3607.06	1820
3608.26	1848
3609.45	1880
3610.65	1830
3611.84	1852
3613.04	1866
3614.23	1828
3615.43	1838
3616.62	1844
3617.82	1892
3619.01	1868
3620.2	1820
3621.39	1820
3622.59	1812
3623.78	1852
3624.97	1846
3626.17	1882
3627.36	1882
3628.55	1872
3629.74	1878
3630.93	1938
3632.12	1858
3633.31	1868
3634.51	1846
3635.7	1874
3636.89	1874
3638.08	1860
3639.27	1842
3640.46	1912
3641.65	1896
3642.84	1856
3644.03	1892
3645.22	1896
3646.4	1896
3647.59	1854
3648.78	1832
3649.97	1876
3651.16	1874
3652.35	1858
3653.53	1806
3654.72	1880
3655.91	1872
3657.1	1866
3658.28	1888
3659.47	1892
3660.66	1944
3661.84	1904
3663.03	1922
3664.21	1890
3665.4	1916
3666.59	1908
3667.77	1928
3668.96	1856
3670.14	1916
3671.33	1890
3672.51	1886
3673.69	1888
3674.88	1870
3676.06	1852
3677.25	1906
3678.43	1898
3679.61	1878
3680.8	1888
3681.98	1904
3683.16	1928
3684.34	1902
3685.53	1926
3686.71	1878
3687.89	1856
3689.07	1878
3690.25	1864
3691.44	1848
3692.62	1942
3693.8	1874
3694.98	1896
3696.16	1938
3697.34	1904
3698.52	1908
3699.7	1924
3700.88	1920
3702.06	1910
3703.24	1922
3704.42	1928
3705.6	1918
3706.78	1962
3707.96	1938
3709.13	1918
3710.31	1894
3711.49	1932
3712.67	1942
3713.85	1884
3715.02	2008
3716.2	1896
3717.38	1976
3718.56	1932
3719.73	1982
3720.91	1964
3722.08	1960
3723.26	1940
3724.44	1950
3725.61	1992
3726.79	2002
3727.96	2006
3729.14	1954
3730.31	1980
3731.49	1948
3732.66	1978
3733.84	2036
3735.01	2000
3736.18	2018
3737.36	2032
3738.53	1988
3739.7	2024
3740.88	2026
3742.05	2038
3743.22	2052
3744.4	2014
3745.57	1976
3746.74	1976
3747.91	2062
3749.09	1972
3750.26	2068
3751.43	2004
3752.6	2064
3753.77	2010
3754.94	2052
3756.11	2066
3757.28	2074
3758.45	2060
3759.62	2066
3760.79	2042
3761.96	2090
3763.13	2072
3764.3	2008
3765.47	2050
3766.64	2018
3767.81	2040
3768.98	2082
3770.14	2098
3771.31	2082
3772.48	2030
3773.65	2062
3774.82	2066
3775.98	2092
3777.15	2066
3778.32	2066
3779.48	2066
3780.65	2080
3781.82	2094
3782.98	2094
3784.15	2130
3785.32	2128
3786.48	2100
3787.65	2096
3788.81	2082
3789.98	2134
3791.14	2092
3792.3	2048
3793.47	2090
3794.63	2068
3795.8	2100
3796.96	2118
3798.13	2134
3799.29	2078
3800.45	2082
3801.61	2108
3802.78	2092
3803.94	2090
3805.1	2138
3806.27	2058
3807.43	2068
3808.59	2116
3809.75	2082
3810.91	2112
3812.07	2150
3813.24	2068
3814.4	2112
3815.56	2084
3816.72	2146
3817.88	2122
3819.04	2122
3820.2	2098
3821.36	2096
3822.52	2056
3823.68	2078
3824.84	2104
3826	2066
3827.15	2062
3828.31	2086
3829.47	2106
3830.63	2130
3831.79	2132
3832.95	2100
3834.1	2120
3835.26	2108
3836.42	2112
3837.58	2130
3838.73	2074
3839.89	2104
3841.04	2088
3842.2	2082
3843.36	2094
3844.51	2152
3845.67	2120
3846.83	2120
3847.98	2128
3849.14	2134
3850.29	2092
3851.45	2150
3852.6	2128
3853.76	2136
3854.91	2140
3856.06	2158
3857.22	2156
3858.37	2162
3859.52	2126
3860.68	2110
3861.83	2132
3862.98	2180
3864.14	2154
3865.29	2112
3866.44	2192
3867.59	2132
3868.75	2196
3869.9	2138
3871.05	2136
3872.2	2186
3873.35	2190
3874.5	2150
3875.65	2168
3876.8	2200
3877.95	2178
3879.1	2176
3880.25	2208
3881.4	2232
3882.55	2218
3883.7	2182
3884.85	2210
3886	2262
3887.15	2224
3888.3	2188
3889.45	2214
3890.6	2180
3891.75	2244
3892.89	2242
3894.04	2254
3895.19	2228
3896.34	2220
3897.48	2254
3898.63	2276
3899.78	2266
3900.92	2246
3902.07	2276
3903.22	2276
3904.36	2272
3905.51	2252
3906.65	2268
3907.8	2294
3908.94	2288
3910.09	2304
3911.23	2280
3912.38	2250
3913.52	2292
3914.67	2246
3915.81	2286
3916.96	2310
3918.1	2282
3919.24	2310
3920.39	2306
3921.53	2280
3922.67	2286
3923.82	2226
3924.96	2346
3926.1	2310
3927.24	2284
3928.39	2306
3929.53	2328
3930.67	2310
3931.81	2262
3932.95	2282
3934.09	2260
3935.24	2268
3936.38	2314
3937.52	2336
3938.66	2314
3939.8	2300
3940.94	2364
3942.08	2296
3943.22	2352
3944.36	2298
3945.5	2330
3946.63	2318
3947.77	2346
3948.91	2338
3950.05	2326
3951.19	2318
3952.33	2308
3953.47	2258
3954.6	2324
3955.74	2318
3956.88	2366
3958.02	2296
3959.15	2334
3960.29	2272
3961.43	2286
3962.56	2320
3963.7	2300
3964.84	2312
3965.97	2302
3967.11	2296
3968.24	2310
3969.38	2326
3970.51	2328
3971.65	2324
3972.78	2304
3973.92	2316
3975.05	2318
3976.19	2290
3977.32	2324
3978.45	2340
3979.59	2294
3980.72	2246
3981.85	2358
3982.99	2360
3984.12	2296
3985.25	2334
3986.39	2388
3987.52	2338
3988.65	2306
3989.78	2364
3990.91	2304
3992.05	2334
3993.18	2340
3994.31	2326
3995.44	2350
3996.57	2386
3997.7	2318
3998.83	2338
3999.96	2336
