#Acq. time (s)=	20
#Accumulations=	2
#Range (cm-¹)=	50...4000
#Windows=	3
#Autofocus=	Off
#AutoExposure=	Off
#Spike filter=	Multiple accum.
#Delay time (s)=	0
#Binning=	1
#Readout mode=	Signal
#DeNoise=	Off
#ICS correction=	Off
#Dark correction=	Off
#Inst. Process=	Off
#Instrument=	LabRAM HR Evol
#Detector=	Syncerity OE
#Objective=	x100_VIS
#Grating=	600 (500nm)
#ND Filter=	100%
#Laser=	532nm_Edge
#Hole=	100.021
#Range=	Visible
#Project=	Omar
#Sample=	
#Site=	21-09-22
#Title=	 CN-Sastre
#Remark=	
#Date=	21.09.2022 12:08
#Acquired=	21.09.2022 12:08:21
51.0918	46
52.9354	48
54.7807	48
56.6235	60
58.4681	74
60.3102	106
62.154	172
63.9954	226
65.8385	306
67.6792	352
69.5216	436
71.3615	586
73.2032	762
75.0424	960
76.8834	1120
78.7218	1226
80.5621	1348
82.3998	1538
84.2393	1672
86.0764	1732
87.9152	1846
89.7515	1924
91.5874	1952
93.4251	1894
95.2603	1902
97.0973	1880
98.9318	1872
100.766	1898
102.602	1858
104.435	1936
106.27	1972
108.103	2014
109.936	1944
111.77	1992
113.601	1992
115.433	2026
117.266	1944
119.096	1910
120.926	1970
122.758	1992
124.588	1918
126.417	1904
128.246	1894
130.076	1908
131.904	1882
133.732	1886
135.561	1906
137.388	1894
139.215	1934
141.041	1950
142.869	1866
144.695	1890
146.52	1882
148.345	1880
150.171	1926
151.995	1904
153.819	1870
155.642	1858
157.465	1858
159.29	1840
161.112	1860
162.934	1882
164.756	1864
166.577	1812
168.398	1842
170.219	1798
172.041	1808
173.861	1804
175.68	1792
177.499	1798
179.318	1774
181.137	1784
182.955	1752
184.772	1776
186.592	1804
188.409	1770
190.225	1796
192.042	1790
193.857	1800
195.673	1758
197.488	1786
199.303	1716
201.118	1774
202.932	1726
204.746	1748
206.559	1736
208.372	1742
210.185	1702
211.997	1728
213.809	1746
215.621	1668
217.432	1700
219.243	1648
221.054	1710
222.864	1660
224.674	1698
226.483	1688
228.293	1680
230.101	1686
231.91	1700
233.718	1638
235.524	1672
237.331	1700
239.138	1664
240.945	1676
242.751	1668
244.557	1664
246.363	1680
248.168	1698
249.971	1704
251.776	1708
253.58	1706
255.384	1706
257.188	1704
258.991	1704
260.792	1720
262.594	1724
264.396	1686
266.198	1670
268	1720
269.799	1736
271.599	1642
273.4	1658
275.2	1688
277	1686
278.797	1690
280.596	1698
282.395	1668
284.193	1686
285.989	1694
287.786	1670
289.584	1704
291.378	1706
293.175	1658
294.971	1686
296.765	1698
298.561	1696
300.356	1748
302.148	1684
303.943	1718
305.737	1706
307.529	1760
309.322	1716
311.115	1774
312.906	1770
314.698	1768
316.49	1716
318.28	1740
320.071	1748
321.86	1728
323.651	1742
325.441	1724
327.229	1754
329.019	1740
330.806	1748
332.595	1776
334.381	1766
336.17	1744
337.955	1812
339.743	1738
341.528	1734
343.315	1758
345.099	1732
346.885	1738
348.669	1748
350.455	1784
352.238	1764
354.022	1714
355.805	1786
357.589	1762
359.371	1810
361.154	1748
362.935	1782
364.718	1756
366.498	1756
368.278	1756
370.06	1784
371.839	1782
373.62	1772
375.398	1768
377.177	1808
378.956	1854
380.734	1782
382.513	1808
384.29	1798
386.067	1812
387.845	1806
389.621	1836
391.396	1800
393.173	1806
394.948	1802
396.723	1836
398.499	1786
400.273	1860
402.046	1820
403.819	1798
405.594	1802
407.366	1842
409.138	1792
410.91	1824
412.683	1786
414.454	1822
416.225	1850
417.995	1836
419.768	1778
421.537	1798
423.307	1772
425.076	1788
426.844	1780
428.615	1760
430.382	1782
432.15	1810
433.917	1814
435.684	1792
437.451	1794
439.219	1832
440.985	1754
442.751	1836
444.516	1828
446.281	1846
448.045	1836
449.81	1832
451.574	1854
453.337	1812
455.102	1800
456.865	1850
458.628	1812
460.39	1878
462.152	1820
463.913	1852
465.674	1818
467.435	1850
469.196	1860
470.956	1846
472.716	1788
474.475	1828
476.234	1822
477.993	1830
479.752	1812
481.51	1756
483.268	1776
485.025	1764
486.782	1770
488.539	1774
490.295	1762
492.051	1776
493.807	1794
495.563	1752
497.316	1764
499.07	1682
500.825	1742
502.579	1758
504.333	1752
506.086	1718
507.839	1712
509.592	1738
511.344	1684
513.094	1710
514.846	1748
516.597	1792
518.349	1752
520.099	1776
521.85	1826
523.598	1796
525.347	1788
527.097	1858
528.846	1896
530.595	1876
532.341	1924
534.089	1960
535.837	1982
537.584	2110
539.329	2122
541.076	2198
542.822	2214
544.568	2266
546.312	2282
548.057	2374
549.802	2364
551.545	2396
553.289	2410
555.033	2392
556.775	2392
558.518	2396
560.261	2414
562.002	2388
563.744	2360
565.487	2352
567.226	2350
568.968	2380
570.709	2272
572.447	2234
574.188	2280
575.926	2252
577.665	2216
579.405	2200
581.142	2182
582.88	2144
584.617	2092
586.355	2156
588.091	2128
589.828	2092
591.565	2076
593.3	2058
595.036	1996
596.77	2018
598.506	2020
600.239	1992
601.974	1970
603.707	1932
605.442	1912
607.174	1870
608.905	1846
610.639	1812
612.37	1804
614.103	1782
615.833	1808
617.565	1770
619.295	1746
621.026	1728
622.755	1694
624.484	1698
626.215	1682
627.943	1678
629.67	1658
631.4	1676
633.127	1658
634.856	1608
636.582	1610
638.308	1602
640.036	1572
641.762	1558
643.487	1560
645.214	1534
646.938	1502
648.662	1510
650.386	1522
652.112	1474
653.835	1446
655.558	1436
657.282	1396
659.005	1396
660.726	1400
662.448	1340
664.171	1376
665.892	1320
667.613	1334
669.333	1316
671.053	1318
672.774	1278
674.494	1300
676.213	1300
677.931	1266
679.649	1222
681.369	1206
683.087	1212
684.804	1172
686.521	1178
688.238	1212
689.954	1150
691.67	1108
693.386	1126
695.103	1106
696.818	1094
698.533	1088
700.247	1034
701.961	1058
703.675	1046
705.389	1044
707.102	1040
708.814	978
710.527	1022
712.239	990
713.951	1034
715.662	974
717.373	948
719.084	976
720.795	948
722.505	948
724.215	952
725.924	944
727.633	962
729.342	944
731.051	938
732.759	940
734.467	940
736.174	920
737.882	920
739.589	932
741.295	936
742.999	918
744.705	942
746.411	946
748.116	942
749.821	926
751.526	968
753.23	956
754.934	950
756.636	958
758.34	946
760.043	940
761.745	954
763.448	936
765.148	982
766.85	992
768.551	980
770.252	994
771.953	994
773.652	952
775.352	988
777.052	992
778.751	1014
780.448	966
782.147	1006
783.846	988
785.544	974
787.24	976
788.938	962
790.635	992
792.33	986
794.027	980
795.723	1002
797.417	1022
799.113	940
800.808	968
802.501	962
804.196	950
805.89	946
807.582	924
809.276	936
810.968	914
812.661	918
814.354	922
816.044	912
817.736	898
819.426	842
821.118	858
822.807	874
824.498	816
826.186	866
827.877	804
829.565	800
831.254	816
832.942	780
834.631	758
836.317	790
838.006	748
839.692	770
841.38	750
843.065	780
844.752	760
846.437	728
848.123	746
849.808	726
851.493	748
853.177	712
854.86	716
856.545	732
858.228	722
859.912	712
861.594	730
863.276	726
864.959	732
866.64	754
868.321	702
870.003	714
871.683	724
873.363	712
875.044	710
876.723	734
878.402	726
880.083	720
881.761	738
883.439	748
885.116	720
886.795	720
888.472	744
890.149	808
891.825	740
893.503	768
895.179	760
896.854	742
898.529	758
900.204	770
901.88	772
903.555	804
905.228	802
906.902	838
908.575	782
910.25	826
911.922	800
913.595	806
915.266	842
916.938	838
918.609	880
920.28	898
921.951	886
923.623	950
925.293	922
926.963	924
928.633	986
930.302	966
931.97	984
933.639	978
935.307	946
936.975	992
938.642	1026
940.31	1056
941.977	1040
943.643	1030
945.31	1084
946.976	1006
948.641	1066
950.307	1106
951.972	1038
953.636	1046
955.301	1100
956.965	1086
958.629	1068
960.292	1064
961.955	1062
963.618	1052
965.279	1074
966.941	1062
968.603	1080
970.265	1018
971.926	1048
973.587	1070
975.248	1094
976.908	1080
978.566	1104
980.226	1060
981.886	1062
983.545	1110
985.204	1108
986.86	1136
988.519	1160
990.177	1154
991.834	1194
993.491	1142
995.147	1174
996.803	1220
998.46	1208
1000.12	1194
1001.77	1174
1003.43	1150
1005.08	1190
1006.73	1224
1008.39	1236
1010.04	1246
1011.7	1244
1013.35	1292
1015	1264
1016.65	1272
1018.3	1250
1019.96	1322
1021.61	1282
1023.26	1332
1024.91	1382
1026.56	1356
1028.21	1360
1029.86	1374
1031.51	1400
1033.16	1504
1034.81	1486
1036.46	1498
1038.1	1494
1039.75	1478
1041.4	1500
1043.05	1558
1044.69	1562
1046.34	1576
1047.99	1668
1049.63	1684
1051.28	1660
1052.92	1674
1054.57	1716
1056.21	1702
1057.86	1772
1059.5	1786
1061.14	1796
1062.79	1870
1064.43	1880
1066.07	1830
1067.72	1874
1069.36	1942
1071	1968
1072.64	2016
1074.28	2098
1075.92	2044
1077.57	2070
1079.2	2158
1080.84	2116
1082.48	2122
1084.12	2176
1085.76	2230
1087.4	2250
1089.04	2216
1090.68	2270
1092.32	2238
1093.95	2282
1095.59	2254
1097.22	2192
1098.86	2266
1100.5	2188
1102.13	2208
1103.77	2170
1105.4	2214
1107.04	2164
1108.67	2148
1110.31	2128
1111.94	2092
1113.58	1994
1115.21	2000
1116.84	1910
1118.47	1934
1120.1	1852
1121.74	1828
1123.37	1810
1125	1714
1126.63	1754
1128.26	1650
1129.89	1656
1131.52	1636
1133.15	1576
1134.78	1546
1136.41	1534
1138.04	1464
1139.67	1464
1141.3	1428
1142.92	1428
1144.55	1400
1146.18	1350
1147.8	1348
1149.43	1288
1151.06	1300
1152.68	1274
1154.31	1246
1155.93	1246
1157.56	1218
1159.18	1218
1160.81	1176
1162.43	1150
1164.06	1150
1165.68	1120
1167.3	1102
1168.93	1076
1170.55	1068
1172.17	1052
1173.79	1044
1175.41	1030
1177.03	1062
1178.66	990
1180.28	970
1181.9	958
1183.52	948
1185.14	930
1186.75	956
1188.37	934
1189.99	954
1191.61	908
1193.23	888
1194.85	860
1196.46	898
1198.08	864
1199.7	878
1201.31	790
1202.93	834
1204.55	832
1206.16	814
1207.78	792
1209.39	776
1211.01	784
1212.62	754
1214.24	722
1215.85	800
1217.46	740
1219.08	742
1220.69	726
1222.3	702
1223.91	744
1225.53	696
1227.14	706
1228.75	710
1230.36	712
1231.97	694
1233.58	688
1235.19	716
1236.8	694
1238.41	658
1240.02	714
1241.63	666
1243.23	660
1244.84	666
1246.45	660
1248.06	670
1249.67	664
1251.27	656
1252.88	674
1254.48	702
1256.09	688
1257.7	640
1259.3	636
1260.91	696
1262.51	692
1264.12	654
1265.72	652
1267.32	678
1268.93	672
1270.53	684
1272.13	664
1273.73	678
1275.34	682
1276.94	670
1278.54	680
1280.14	650
1281.74	664
1283.35	672
1284.94	662
1286.54	658
1288.15	674
1289.74	690
1291.34	636
1292.94	682
1294.54	626
1296.14	664
1297.74	678
1299.33	690
1300.93	680
1302.53	678
1304.12	650
1305.72	670
1307.32	662
1308.91	692
1310.51	634
1312.1	642
1313.7	680
1315.29	674
1316.89	652
1318.48	658
1320.07	692
1321.67	676
1323.26	690
1324.85	648
1326.45	648
1328.04	658
1329.63	670
1331.22	688
1332.81	672
1334.4	696
1335.99	690
1337.58	650
1339.17	666
1340.77	676
1342.35	702
1343.94	660
1345.53	672
1347.12	674
1348.71	696
1350.3	666
1351.88	690
1353.47	686
1355.06	646
1356.64	728
1358.23	660
1359.82	664
1361.4	682
1362.99	640
1364.57	678
1366.16	684
1367.74	684
1369.33	676
1370.91	644
1372.49	674
1374.08	718
1375.66	664
1377.24	636
1378.82	662
1380.41	678
1381.99	660
1383.57	674
1385.15	670
1386.73	672
1388.31	682
1389.89	664
1391.47	678
1393.05	690
1394.63	686
1396.21	644
1397.79	676
1399.37	674
1400.95	676
1402.52	670
1404.1	660
1405.68	658
1407.25	670
1408.83	666
1410.41	668
1411.98	676
1413.56	668
1415.13	698
1416.71	662
1418.29	710
1419.86	654
1421.43	674
1423.01	696
1424.58	670
1426.15	694
1427.73	696
1429.3	676
1430.87	706
1432.44	696
1434.02	686
1435.59	660
1437.16	692
1438.73	710
1440.3	670
1441.87	686
1443.44	670
1445.01	686
1446.58	672
1448.15	698
1449.72	658
1451.29	678
1452.85	684
1454.42	674
1455.99	678
1457.56	670
1459.12	666
1460.69	698
1462.26	670
1463.82	690
1465.39	666
1466.95	664
1468.52	664
1470.08	672
1471.65	662
1473.21	686
1474.78	670
1476.34	700
1477.9	702
1479.47	684
1481.03	688
1482.59	678
1484.16	662
1485.72	660
1487.28	660
1488.84	714
1490.4	676
1491.96	712
1493.52	664
1495.08	708
1496.64	672
1498.2	694
1499.76	706
1501.32	714
1502.88	698
1504.44	730
1506	694
1507.55	690
1509.11	728
1510.67	702
1512.22	706
1513.78	706
1515.34	706
1516.89	720
1518.45	698
1520.01	708
1521.56	736
1523.11	704
1524.67	734
1526.22	700
1527.78	700
1529.33	698
1530.88	696
1532.44	684
1533.99	690
1535.54	700
1537.09	724
1538.65	686
1540.2	694
1541.75	678
1543.3	684
1544.85	686
1546.4	742
1547.95	712
1549.5	654
1551.05	692
1552.6	712
1554.15	702
1555.7	734
1557.25	700
1558.79	694
1560.34	694
1561.89	672
1563.43	706
1564.98	702
1566.53	670
1568.08	702
1569.62	686
1571.17	744
1572.71	702
1574.26	704
1575.8	690
1577.35	732
1578.89	658
1580.43	710
1581.98	676
1583.52	686
1585.06	712
1586.61	690
1588.15	688
1589.69	700
1591.23	694
1592.77	682
1594.32	690
1595.86	702
1597.4	674
1598.94	734
1600.48	698
1602.02	692
1603.56	680
1605.1	718
1606.64	689.472
1608.18	682.56
1609.71	687.318
1611.25	691.782
1612.79	698.43
1614.33	702.909
1615.86	677.214
1617.4	680.029
1618.94	672.341
1620.47	681.809
1622.01	683.387
1623.55	700.75
1625.08	668.42
1626.62	683.893
1628.15	694.463
1629.69	663.162
1631.22	656.25
1632.75	677.479
1634.29	681.838
1635.82	661.323
1637.35	671.972
1638.89	666.165
1640.42	687.945
1641.95	664.079
1643.48	661.083
1645.02	668.767
1646.55	652.124
1648.08	667.956
1649.61	652.257
1651.14	668.794
1652.67	674.309
1654.2	653.914
1655.73	665.745
1657.26	670.074
1658.79	658.603
1660.32	656.629
1661.84	688.602
1663.37	666.922
1664.9	634.64
1666.43	690.041
1667.96	668.913
1669.48	670.365
1671.01	635.992
1672.54	659.594
1674.06	663.235
1675.59	664.285
1677.11	657.694
1678.64	641.497
1680.16	635.209
1681.69	659.762
1683.21	654.367
1684.74	658.659
1686.26	640.456
1687.79	634.211
1689.31	657.764
1690.83	646.438
1692.35	628.97
1693.88	644.851
1695.4	667.061
1696.92	645.746
1698.44	644.917
1699.96	644.961
1701.48	646.554
1703.01	661.8
1704.53	637.704
1706.05	635.801
1707.57	651.12
1709.09	645.782
1710.6	645.023
1712.12	637.855
1713.64	641.191
1715.16	647.568
1716.68	636.945
1718.2	619.742
1719.71	634.819
1721.23	623.457
1722.75	621.198
1724.27	618.24
1725.78	614.722
1727.3	613.107
1728.81	652.887
1730.33	626.078
1731.84	616.584
1733.36	614.44
1734.88	612.397
1736.39	599.434
1737.9	603.966
1739.42	611.39
1740.93	601.609
1742.44	596.014
1743.96	616.965
1745.47	604.5
1746.98	609.364
1748.49	606.351
1750.01	623.785
1751.52	616.316
1753.03	614.41
1754.54	622.57
1756.05	591.248
1757.56	598.03
1757.63	598
1759.14	584
1760.66	608
1762.18	592
1763.69	596
1765.21	608
1766.72	578
1768.24	594
1769.75	580
1771.27	600
1772.78	610
1774.3	616
1775.81	604
1777.32	596
1778.84	572
1780.35	606
1781.86	590
1783.38	616
1784.89	602
1786.4	602
1787.91	618
1789.42	592
1790.93	608
1792.44	580
1793.95	604
1795.47	602
1796.98	588
1798.48	610
1799.99	602
1801.5	612
1803.01	640
1804.52	618
1806.03	620
1807.54	624
1809.04	596
1810.55	586
1812.06	596
1813.57	582
1815.07	596
1816.58	590
1818.08	614
1819.59	624
1821.09	568
1822.6	634
1824.11	602
1825.61	602
1827.11	602
1828.62	590
1830.12	624
1831.63	586
1833.13	590
1834.63	580
1836.13	590
1837.64	592
1839.14	596
1840.64	624
1842.14	610
1843.64	588
1845.14	624
1846.64	592
1848.14	626
1849.64	600
1851.14	628
1852.64	612
1854.14	578
1855.64	600
1857.14	598
1858.64	586
1860.14	584
1861.64	594
1863.13	578
1864.63	560
1866.13	632
1867.63	602
1869.12	624
1870.62	604
1872.11	624
1873.61	612
1875.1	580
1876.6	616
1878.09	616
1879.59	604
1881.08	610
1882.58	594
1884.07	630
1885.56	648
1887.06	626
1888.55	618
1890.04	610
1891.54	630
1893.03	612
1894.52	610
1896.01	600
1897.5	578
1898.99	598
1900.48	618
1901.97	608
1903.46	622
1904.96	630
1906.44	610
1907.93	582
1909.42	606
1910.91	594
1912.4	630
1913.89	612
1915.38	618
1916.86	634
1918.35	638
1919.84	630
1921.32	622
1922.81	636
1924.3	650
1925.78	602
1927.27	618
1928.76	628
1930.24	620
1931.72	632
1933.21	622
1934.69	608
1936.18	614
1937.66	606
1939.15	588
1940.63	634
1942.11	576
1943.59	596
1945.08	636
1946.56	620
1948.04	630
1949.52	648
1951	624
1952.48	620
1953.97	640
1955.45	618
1956.93	634
1958.41	628
1959.89	620
1961.37	590
1962.85	610
1964.32	596
1965.8	608
1967.28	610
1968.76	626
1970.24	616
1971.71	592
1973.19	630
1974.67	620
1976.15	628
1977.62	622
1979.1	624
1980.57	598
1982.05	618
1983.53	614
1985	622
1986.48	604
1987.95	618
1989.42	620
1990.9	622
1992.37	586
1993.85	616
1995.32	598
1996.79	612
1998.26	580
1999.74	610
2001.21	640
2002.68	600
2004.15	628
2005.62	640
2007.09	634
2008.56	610
2010.03	622
2011.51	606
2012.98	602
2014.44	606
2015.92	622
2017.38	634
2018.85	622
2020.32	622
2021.79	598
2023.26	614
2024.73	608
2026.19	630
2027.66	636
2029.13	632
2030.59	602
2032.06	622
2033.53	620
2034.99	578
2036.46	612
2037.92	628
2039.39	604
2040.85	622
2042.32	636
2043.78	618
2045.25	622
2046.71	628
2048.17	616
2049.64	606
2051.1	628
2052.56	626
2054.02	610
2055.49	636
2056.95	628
2058.41	632
2059.87	610
2061.33	628
2062.79	618
2064.25	620
2065.71	626
2067.17	630
2068.63	638
2070.09	632
2071.55	624
2073.01	632
2074.47	634
2075.93	598
2077.39	612
2078.84	630
2080.3	636
2081.76	636
2083.22	656
2084.67	600
2086.13	632
2087.59	624
2089.04	634
2090.5	616
2091.95	620
2093.41	614
2094.86	608
2096.32	584
2097.77	622
2099.23	620
2100.68	610
2102.13	642
2103.59	618
2105.04	612
2106.49	640
2107.95	606
2109.4	620
2110.85	634
2112.3	632
2113.75	620
2115.21	620
2116.66	610
2118.11	634
2119.56	642
2121.01	616
2122.46	634
2123.91	628
2125.36	624
2126.8	620
2128.25	590
2129.7	604
2131.15	624
2132.6	608
2134.05	632
2135.49	620
2136.94	616
2138.39	634
2139.83	648
2141.28	634
2142.73	608
2144.17	616
2145.62	586
2147.06	626
2148.51	632
2149.95	614
2151.4	624
2152.84	606
2154.29	632
2155.73	606
2157.17	638
2158.62	652
2160.06	622
2161.5	632
2162.95	634
2164.39	638
2165.83	646
2167.27	602
2168.71	632
2170.15	616
2171.59	624
2173.04	654
2174.48	622
2175.92	630
2177.36	612
2178.79	626
2180.24	640
2181.67	634
2183.11	626
2184.55	628
2185.99	628
2187.43	666
2188.86	640
2190.3	636
2191.74	654
2193.18	650
2194.61	634
2196.05	620
2197.49	622
2198.92	636
2200.36	614
2201.79	626
2203.23	632
2204.66	622
2206.1	644
2207.53	596
2208.97	622
2210.4	610
2211.83	632
2213.27	598
2214.7	626
2216.13	626
2217.57	594
2219	604
2220.43	600
2221.86	616
2223.29	588
2224.72	600
2226.15	622
2227.59	642
2229.02	650
2230.45	596
2231.88	640
2233.31	612
2234.74	622
2236.16	582
2237.59	602
2239.02	600
2240.45	608
2241.88	636
2243.31	616
2244.73	630
2246.16	618
2247.59	596
2249.01	612
2250.44	626
2251.87	582
2253.29	608
2254.72	622
2256.15	630
2257.57	634
2259	602
2260.42	622
2261.84	600
2263.27	592
2264.69	630
2266.12	598
2267.54	616
2268.96	606
2270.39	614
2271.81	620
2273.23	618
2274.65	600
2276.07	608
2277.5	604
2278.92	618
2280.34	600
2281.76	612
2283.18	624
2284.6	640
2286.02	624
2287.44	620
2288.86	640
2290.28	638
2291.7	588
2293.12	630
2294.54	628
2295.95	622
2297.37	618
2298.79	642
2300.21	624
2301.62	632
2303.04	612
2304.46	656
2305.88	636
2307.29	616
2308.71	644
2310.12	644
2311.54	648
2312.95	652
2314.37	644
2315.78	658
2317.2	622
2318.61	644
2320.02	634
2321.44	652
2322.85	646
2324.27	662
2325.68	688
2327.09	670
2328.5	686
2329.92	722
2331.33	694
2332.74	668
2334.15	660
2335.56	668
2336.97	678
2338.38	700
2339.79	620
2341.2	664
2342.61	714
2344.02	686
2345.43	712
2346.84	668
2348.25	654
2349.66	682
2351.07	662
2352.48	724
2353.88	682
2355.29	686
2356.7	712
2358.11	710
2359.51	714
2360.92	680
2362.32	692
2363.73	718
2365.14	684
2366.54	708
2367.95	742
2369.35	728
2370.76	762
2372.16	764
2373.57	716
2374.97	726
2376.37	730
2377.78	770
2379.18	736
2380.58	726
2381.99	740
2383.39	732
2384.79	754
2386.19	756
2387.59	766
2389	748
2390.4	774
2391.8	738
2393.2	752
2394.6	784
2396	756
2397.4	762
2398.8	754
2400.2	766
2401.6	774
2403	734
2404.39	770
2405.79	804
2407.19	776
2408.59	754
2409.99	774
2411.38	768
2412.78	776
2414.18	782
2415.57	790
2416.97	796
2418.37	764
2419.76	784
2421.16	772
2422.55	790
2423.95	772
2425.34	806
2426.74	812
2428.13	794
2429.53	780
2430.92	780
2432.31	772
2433.71	794
2435.1	802
2436.49	776
2437.89	788
2439.28	804
2440.67	760
2442.06	782
2443.45	758
2444.85	788
2446.24	790
2447.63	762
2449.02	778
2450.41	754
2451.8	782
2453.19	796
2454.58	790
2455.97	784
2457.36	820
2458.75	804
2460.13	788
2461.52	746
2462.91	762
2464.3	774
2465.69	784
2467.07	812
2468.46	784
2469.85	784
2471.24	800
2472.62	788
2474.01	798
2475.39	796
2476.78	790
2478.16	800
2479.55	790
2480.94	778
2482.32	798
2483.7	786
2485.09	756
2486.47	792
2487.85	802
2489.24	784
2490.62	776
2492	786
2493.39	766
2494.77	780
2496.15	794
2497.53	802
2498.92	794
2500.3	766
2501.68	804
2503.06	770
2504.44	778
2505.82	794
2507.2	792
2508.58	774
2509.96	802
2511.34	776
2512.72	786
2514.1	794
2515.48	780
2516.85	790
2518.23	764
2519.61	766
2520.99	794
2522.37	790
2523.74	774
2525.12	774
2526.5	782
2527.87	778
2529.25	806
2530.63	800
2532	782
2533.38	766
2534.75	794
2536.13	750
2537.5	782
2538.88	792
2540.25	808
2541.62	772
2543	772
2544.37	766
2545.75	792
2547.12	778
2548.49	812
2549.86	778
2551.24	760
2552.61	760
2553.98	764
2555.35	796
2556.72	772
2558.09	798
2559.47	798
2560.84	790
2562.21	798
2563.57	772
2564.95	806
2566.32	774
2567.68	788
2569.05	770
2570.42	784
2571.79	754
2573.16	786
2574.53	780
2575.9	800
2577.26	820
2578.63	788
2580	812
2581.36	814
2582.73	802
2584.1	778
2585.46	796
2586.83	762
2588.19	806
2589.56	812
2590.93	780
2592.29	778
2593.66	804
2595.02	832
2596.39	798
2597.75	816
2599.11	784
2600.47	800
2601.84	798
2603.2	788
2604.56	788
2605.93	794
2607.29	822
2608.65	790
2610.01	810
2611.38	830
2612.74	832
2614.1	788
2615.46	818
2616.82	810
2618.18	798
2619.54	830
2620.9	808
2622.26	816
2623.62	820
2624.98	808
2626.34	810
2627.69	814
2629.05	816
2630.41	846
2631.77	802
2633.13	794
2634.48	832
2635.84	810
2637.2	830
2638.56	832
2639.91	820
2641.27	804
2642.62	836
2643.98	832
2645.33	788
2646.69	836
2648.05	812
2649.4	809
2650.75	806
2652.11	844
2653.46	856
2654.82	816
2656.17	812
2657.52	828
2658.88	814
2660.23	806
2661.58	840
2662.94	840
2664.29	862
2665.64	824
2666.99	826
2668.34	824
2669.69	826
2671.04	824
2672.39	810
2673.75	840
2675.09	836
2676.45	788
2677.79	830
2679.14	834
2680.49	798
2681.84	820
2683.19	832
2684.54	828
2685.89	814
2687.24	826
2688.58	780
2689.93	808
2691.28	840
2692.63	864
2693.97	826
2695.32	854
2696.67	818
2698.01	844
2699.36	828
2700.7	822
2702.05	854
2703.39	846
2704.74	834
2706.08	826
2707.43	828
2708.77	830
2710.12	794
2711.46	814
2712.8	836
2714.15	818
2715.49	840
2716.83	826
2718.17	866
2719.52	860
2720.86	834
2722.2	850
2723.54	858
2724.88	830
2726.22	826
2727.57	854
2728.91	868
2730.25	854
2731.59	842
2732.93	844
2734.27	854
2735.61	842
2736.95	884
2738.28	832
2739.62	876
2740.96	866
2742.3	832
2743.64	850
2744.98	872
2746.31	870
2747.65	858
2748.99	852
2750.33	878
2751.66	894
2753	890
2754.33	860
2755.67	862
2757.01	848
2758.34	876
2759.68	882
2761.01	874
2762.35	856
2763.68	866
2765.01	880
2766.35	838
2767.68	898
2769.02	886
2770.35	896
2771.68	890
2773.02	888
2774.35	894
2775.68	882
2777.01	878
2778.35	892
2779.68	864
2781.01	862
2782.34	902
2783.67	884
2785	894
2786.33	894
2787.66	874
2788.99	906
2790.32	900
2791.65	874
2792.98	906
2794.31	914
2795.64	884
2796.97	900
2798.3	916
2799.62	898
2800.95	914
2802.28	920
2803.61	920
2804.93	916
2806.26	912
2807.59	886
2808.91	948
2810.24	912
2811.57	900
2812.89	922
2814.22	914
2815.54	928
2816.87	924
2818.19	922
2819.52	936
2820.84	924
2822.17	928
2823.49	938
2824.81	924
2826.14	928
2827.46	896
2828.78	954
2830.11	914
2831.43	926
2832.75	964
2834.07	940
2835.39	936
2836.72	918
2838.04	914
2839.36	960
2840.68	916
2842	938
2843.32	958
2844.64	936
2845.96	980
2847.28	934
2848.6	950
2849.92	948
2851.24	934
2852.56	940
2853.88	996
2855.19	988
2856.51	968
2857.83	990
2859.15	964
2860.46	954
2861.78	966
2863.1	968
2864.42	928
2865.73	970
2867.05	944
2868.36	978
2869.68	948
2871	962
2872.31	940
2873.63	966
2874.94	950
2876.26	988
2877.57	988
2878.88	966
2880.2	958
2881.51	924
2882.82	958
2884.14	962
2885.45	964
2886.76	970
2888.08	988
2889.39	994
2890.7	972
2892.01	1000
2893.33	984
2894.64	1000
2895.95	978
2897.26	990
2898.57	1000
2899.88	1006
2901.19	980
2902.5	996
2903.81	980
2905.12	982
2906.43	998
2907.74	960
2909.05	958
2910.35	998
2911.66	976
2912.97	1006
2914.28	978
2915.59	1010
2916.89	974
2918.2	989.935
2919.51	1009.62
2920.82	995.439
2922.12	1013.39
2923.43	1016.96
2924.73	1016.22
2926.04	998.684
2927.35	981.435
2928.65	997.182
2929.96	1003.48
2931.26	1011.92
2932.57	1017.36
2933.87	981.593
2935.17	1001.58
2936.48	1007.89
2937.78	1023.08
2939.09	1034.2
2940.39	1036.49
2941.69	1015.36
2943	1021.5
2944.3	1021.24
2945.6	1037.78
2946.9	1050.69
2948.2	1044.4
2949.51	1036.1
2950.81	1048.32
2952.11	1040.77
2953.41	1023.63
2954.71	1034.15
2956.01	1042.34
2957.31	1043.39
2958.61	1042.4
2959.91	1020.6
2961.21	1047.18
2962.51	1059.42
2963.81	1037.27
2965.11	1055.32
2966.41	1037.76
2967.71	1038.03
2969.01	1062.6
2970.3	1051.04
2971.6	1039.5
2972.9	1060.7
2974.2	1083.35
2975.49	1069.66
2976.79	1059.49
2978.09	1070.84
2979.39	1058.2
2980.68	1058.98
2981.98	1073.62
2983.27	1073.11
2984.57	1077.85
2985.86	1061.75
2987.16	1081.49
2988.45	1063.5
2989.75	1070.3
2991.04	1065.14
2992.34	1093.08
2993.63	1070.15
2994.93	1086.28
2996.22	1076.44
2997.51	1074.04
2998.81	1091.98
3000.1	1069.86
3001.39	1077.76
3002.68	1099.86
3003.98	1094.11
3005.27	1099.69
3006.56	1108.92
3007.85	1076.56
3009.14	1100.17
3010.43	1064.3
3011.72	1084.75
3013.01	1097.88
3014.31	1097.48
3015.59	1107.09
3016.89	1077.31
3018.18	1135.18
3019.47	1105.8
3020.75	1113.56
3022.04	1104.73
3023.33	1102.89
3024.62	1085.35
3025.91	1108.54
3027.2	1113.52
3028.48	1123.41
3029.77	1123.7
3031.06	1137.49
3032.35	1120.43
3033.64	1129.45
3034.92	1116.81
3036.21	1131.64
3037.5	1113.43
3038.78	1100.52
3040.07	1126
3041.35	1150.2
3042.64	1120.47
3043.92	1140.75
3045.21	1145.02
3046.49	1132.37
3047.78	1148.55
3048.11	1156
3049.4	1152
3050.69	1174
3051.98	1174
3053.27	1144
3054.56	1208
3055.85	1150
3057.14	1144
3058.43	1164
3059.72	1186
3061.01	1178
3062.29	1172
3063.58	1190
3064.87	1150
3066.16	1176
3067.44	1166
3068.73	1190
3070.02	1164
3071.31	1190
3072.59	1140
3073.88	1164
3075.16	1176
3076.45	1158
3077.73	1204
3079.02	1170
3080.31	1196
3081.59	1222
3082.87	1188
3084.16	1164
3085.44	1202
3086.73	1198
3088.01	1190
3089.29	1236
3090.58	1218
3091.86	1208
3093.14	1178
3094.43	1190
3095.71	1236
3096.99	1198
3098.27	1182
3099.55	1210
3100.84	1210
3102.12	1236
3103.4	1218
3104.68	1196
3105.96	1192
3107.24	1232
3108.52	1216
3109.8	1234
3111.08	1210
3112.36	1182
3113.64	1222
3114.92	1216
3116.2	1258
3117.48	1236
3118.75	1250
3120.03	1250
3121.31	1256
3122.59	1236
3123.87	1268
3125.14	1284
3126.42	1246
3127.7	1278
3128.97	1256
3130.25	1224
3131.53	1256
3132.8	1294
3134.08	1256
3135.35	1270
3136.63	1276
3137.9	1234
3139.18	1300
3140.45	1258
3141.73	1248
3143	1296
3144.28	1282
3145.55	1310
3146.82	1306
3148.1	1322
3149.37	1286
3150.64	1306
3151.92	1284
3153.19	1308
3154.46	1284
3155.73	1294
3157.01	1314
3158.28	1322
3159.55	1308
3160.82	1320
3162.09	1312
3163.36	1318
3164.63	1292
3165.9	1342
3167.17	1320
3168.44	1320
3169.71	1280
3170.98	1348
3172.25	1352
3173.52	1352
3174.79	1346
3176.06	1364
3177.32	1314
3178.59	1360
3179.86	1326
3181.13	1324
3182.4	1342
3183.66	1362
3184.93	1358
3186.2	1352
3187.46	1354
3188.73	1326
3190	1384
3191.26	1358
3192.53	1364
3193.79	1356
3195.06	1362
3196.32	1340
3197.59	1344
3198.85	1342
3200.12	1364
3201.38	1364
3202.65	1348
3203.91	1384
3205.17	1360
3206.44	1372
3207.7	1368
3208.96	1364
3210.23	1372
3211.49	1370
3212.75	1398
3214.01	1382
3215.27	1330
3216.54	1398
3217.8	1384
3219.06	1390
3220.32	1382
3221.58	1422
3222.84	1370
3224.1	1406
3225.36	1428
3226.62	1346
3227.88	1374
3229.14	1404
3230.4	1392
3231.66	1396
3232.92	1426
3234.18	1398
3235.44	1422
3236.69	1388
3237.95	1402
3239.21	1366
3240.47	1430
3241.72	1418
3242.98	1408
3244.24	1432
3245.5	1424
3246.75	1436
3248.01	1428
3249.26	1436
3250.52	1416
3251.78	1430
3253.03	1434
3254.29	1412
3255.54	1440
3256.8	1380
3258.05	1426
3259.3	1434
3260.56	1450
3261.81	1414
3263.07	1424
3264.32	1474
3265.57	1466
3266.83	1414
3268.08	1464
3269.33	1432
3270.58	1470
3271.84	1440
3273.09	1474
3274.34	1450
3275.59	1500
3276.84	1492
3278.09	1488
3279.35	1494
3280.6	1494
3281.85	1508
3283.1	1468
3284.35	1510
3285.6	1472
3286.85	1498
3288.1	1508
3289.35	1534
3290.59	1496
3291.84	1512
3293.09	1480
3294.34	1508
3295.59	1516
3296.84	1494
3298.08	1512
3299.33	1580
3300.58	1522
3301.83	1572
3303.07	1542
3304.32	1554
3305.57	1518
3306.81	1566
3308.06	1546
3309.3	1564
3310.55	1558
3311.79	1538
3313.04	1568
3314.29	1552
3315.53	1530
3316.77	1542
3318.02	1526
3319.26	1596
3320.51	1590
3321.75	1510
3322.99	1576
3324.24	1586
3325.48	1594
3326.72	1572
3327.97	1568
3329.21	1576
3330.45	1604
3331.69	1612
3332.93	1600
3334.18	1586
3335.42	1610
3336.66	1600
3337.9	1622
3339.14	1600
3340.38	1620
3341.62	1570
3342.86	1620
3344.1	1652
3345.34	1600
3346.58	1592
3347.82	1614
3349.06	1638
3350.3	1628
3351.54	1580
3352.77	1620
3354.01	1614
3355.25	1600
3356.49	1636
3357.73	1610
3358.96	1640
3360.2	1638
3361.44	1620
3362.67	1640
3363.91	1628
3365.15	1652
3366.38	1582
3367.62	1596
3368.85	1664
3370.09	1686
3371.33	1638
3372.56	1668
3373.8	1646
3375.03	1666
3376.26	1706
3377.5	1604
3378.73	1618
3379.97	1676
3381.2	1640
3382.43	1642
3383.67	1656
3384.9	1680
3386.13	1690
3387.37	1652
3388.6	1688
3389.83	1654
3391.06	1658
3392.29	1662
3393.52	1680
3394.76	1704
3395.99	1710
3397.22	1652
3398.45	1640
3399.68	1690
3400.91	1666
3402.14	1680
3403.37	1650
3404.6	1730
3405.83	1704
3407.06	1666
3408.29	1706
3409.51	1718
3410.74	1762
3411.97	1706
3413.2	1688
3414.43	1726
3415.66	1698
3416.88	1742
3418.11	1746
3419.34	1700
3420.56	1764
3421.79	1726
3423.02	1762
3424.24	1750
3425.47	1754
3426.7	1766
3427.92	1768
3429.15	1768
3430.37	1728
3431.6	1724
3432.82	1772
3434.05	1724
3435.27	1798
3436.5	1756
3437.72	1746
3438.94	1812
3440.17	1788
3441.39	1794
3442.61	1792
3443.84	1802
3445.06	1770
3446.28	1814
3447.51	1784
3448.73	1822
3449.95	1830
3451.17	1860
3452.39	1832
3453.61	1870
3454.83	1858
3456.06	1840
3457.28	1840
3458.5	1864
3459.72	1822
3460.94	1880
3462.16	1792
3463.38	1916
3464.6	1850
3465.82	1870
3467.04	1852
3468.25	1850
3469.47	1856
3470.69	1866
3471.91	1864
3473.13	1898
3474.34	1880
3475.56	1866
3476.78	1876
3478	1860
3479.21	1912
3480.43	1900
3481.65	1888
3482.86	1902
3484.08	1880
3485.3	1896
3486.51	1890
3487.73	1908
3488.94	1882
3490.16	1886
3491.37	1896
3492.59	1912
3493.8	1930
3495.02	1900
3496.23	1886
3497.45	1846
3498.66	1902
3499.87	1908
3501.09	1860
3502.3	1928
3503.51	1844
3504.72	1926
3505.94	1922
3507.15	1882
3508.36	1882
3509.57	1898
3510.79	1922
3512	1944
3513.21	1902
3514.42	1874
3515.63	1856
3516.84	1872
3518.05	1880
3519.26	1892
3520.47	1858
3521.68	1894
3522.89	1892
3524.1	1908
3525.31	1922
3526.52	1896
3527.73	1886
3528.94	1904
3530.14	1910
3531.35	1878
3532.56	1886
3533.77	1928
3534.98	1916
3536.18	1940
3537.39	1934
3538.6	1944
3539.81	1870
3541.01	1900
3542.22	1922
3543.42	1946
3544.63	1954
3545.84	1894
3547.04	1946
3548.25	1940
3549.45	1912
3550.66	1930
3551.86	1946
3553.07	1934
3554.27	1956
3555.47	1918
3556.68	1944
3557.88	1944
3559.09	1972
3560.29	1968
3561.49	1958
3562.7	2014
3563.9	2008
3565.1	1996
3566.3	1960
3567.51	1964
3568.71	1960
3569.91	2016
3571.11	1956
3572.31	2040
3573.51	2008
3574.71	2034
3575.92	2038
3577.12	2016
3578.32	2004
3579.52	2014
3580.72	2010
3581.92	2014
3583.12	2012
3584.31	2000
3585.51	2024
3586.71	2022
3587.91	2022
3589.11	2048
3590.31	2056
3591.51	2026
3592.71	2044
3593.9	2074
3595.1	2046
3596.3	2070
3597.49	2088
3598.69	2068
3599.89	2074
3601.08	2064
3602.28	2096
3603.48	2070
3604.67	2080
3605.87	2118
3607.06	2136
3608.26	2082
3609.45	2078
3610.65	2114
3611.84	2106
3613.04	2044
3614.23	2134
3615.43	2196
3616.62	2160
3617.82	2090
3619.01	2134
3620.2	2080
3621.39	2102
3622.59	2096
3623.78	2132
3624.97	2130
3626.17	2138
3627.36	2074
3628.55	2144
3629.74	2134
3630.93	2152
3632.12	2102
3633.31	2116
3634.51	2198
3635.7	2194
3636.89	2126
3638.08	2132
3639.27	2138
3640.46	2162
3641.65	2130
3642.84	2168
3644.03	2140
3645.22	2120
3646.4	2110
3647.59	2166
3648.78	2158
3649.97	2178
3651.16	2208
3652.35	2224
3653.53	2118
3654.72	2166
3655.91	2188
3657.1	2180
3658.28	2110
3659.47	2132
3660.66	2202
3661.84	2180
3663.03	2110
3664.21	2192
3665.4	2156
3666.59	2174
3667.77	2140
3668.96	2152
3670.14	2170
3671.33	2170
3672.51	2144
3673.69	2166
3674.88	2152
3676.06	2152
3677.25	2126
3678.43	2136
3679.61	2170
3680.8	2192
3681.98	2168
3683.16	2236
3684.34	2170
3685.53	2188
3686.71	2230
3687.89	2178
3689.07	2206
3690.25	2186
3691.44	2130
3692.62	2210
3693.8	2210
3694.98	2210
3696.16	2236
3697.34	2220
3698.52	2170
3699.7	2252
3700.88	2192
3702.06	2250
3703.24	2156
3704.42	2206
3705.6	2224
3706.78	2210
3707.96	2216
3709.13	2256
3710.31	2282
3711.49	2242
3712.67	2228
3713.85	2224
3715.02	2228
3716.2	2250
3717.38	2254
3718.56	2224
3719.73	2298
3720.91	2274
3722.08	2270
3723.26	2256
3724.44	2288
3725.61	2274
3726.79	2274
3727.96	2262
3729.14	2304
3730.31	2280
3731.49	2312
3732.66	2276
3733.84	2286
3735.01	2308
3736.18	2320
3737.36	2328
3738.53	2334
3739.7	2354
3740.88	2298
3742.05	2322
3743.22	2344
3744.4	2318
3745.57	2358
3746.74	2348
3747.91	2292
3749.09	2318
3750.26	2288
3751.43	2366
3752.6	2366
3753.77	2370
3754.94	2352
3756.11	2344
3757.28	2342
3758.45	2350
3759.62	2392
3760.79	2378
3761.96	2364
3763.13	2384
3764.3	2366
3765.47	2372
3766.64	2412
3767.81	2396
3768.98	2356
3770.14	2402
3771.31	2360
3772.48	2458
3773.65	2442
3774.82	2406
3775.98	2422
3777.15	2388
3778.32	2380
3779.48	2406
3780.65	2422
3781.82	2442
3782.98	2422
3784.15	2438
3785.32	2418
3786.48	2396
3787.65	2466
3788.81	2448
3789.98	2438
3791.14	2424
3792.3	2438
3793.47	2406
3794.63	2364
3795.8	2368
3796.96	2424
3798.13	2384
3799.29	2410
3800.45	2426
3801.61	2470
3802.78	2462
3803.94	2464
3805.1	2452
3806.27	2406
3807.43	2458
3808.59	2469
3809.75	2434
3810.91	2472
3812.07	2470
3813.24	2406
3814.4	2452
3815.56	2456
3816.72	2386
3817.88	2408
3819.04	2438
3820.2	2460
3821.36	2468
3822.52	2416
3823.68	2426
3824.84	2412
3826	2434
3827.15	2436
3828.31	2416
3829.47	2394
3830.63	2422
3831.79	2472
3832.95	2424
3834.1	2448
3835.26	2442
3836.42	2504
3837.58	2422
3838.73	2448
3839.89	2426
3841.04	2444
3842.2	2416
3843.36	2446
3844.51	2482
3845.67	2398
3846.83	2400
3847.98	2468
3849.14	2468
3850.29	2488
3851.45	2464
3852.6	2444
3853.76	2486
3854.91	2398
3856.06	2478
3857.22	2478
3858.37	2554
3859.52	2490
3860.68	2522
3861.83	2508
3862.98	2462
3864.14	2444
3865.29	2512
3866.44	2482
3867.59	2492
3868.75	2534
3869.9	2452
3871.05	2508
3872.2	2544
3873.35	2524
3874.5	2532
3875.65	2522
3876.8	2478
3877.95	2548
3879.1	2546
3880.25	2560
3881.4	2554
3882.55	2538
3883.7	2536
3884.85	2588
3886	2518
3887.15	2548
3888.3	2534
3889.45	2578
3890.6	2586
3891.75	2550
3892.89	2538
3894.04	2536
3895.19	2626
3896.34	2594
3897.48	2632
3898.63	2576
3899.78	2608
3900.92	2616
3902.07	2582
3903.22	2608
3904.36	2576
3905.51	2632
3906.65	2596
3907.8	2588
3908.94	2634
3910.09	2610
3911.23	2634
3912.38	2648
3913.52	2636
3914.67	2710
3915.81	2660
3916.96	2630
3918.1	2654
3919.24	2654
3920.39	2628
3921.53	2642
3922.67	2632
3923.82	2666
3924.96	2668
3926.1	2656
3927.24	2662
3928.39	2690
3929.53	2664
3930.67	2690
3931.81	2636
3932.95	2708
3934.09	2708
3935.24	2692
3936.38	2652
3937.52	2672
3938.66	2656
3939.8	2728
3940.94	2634
3942.08	2624
3943.22	2710
3944.36	2668
3945.5	2674
3946.63	2670
3947.77	2696
3948.91	2688
3950.05	2700
3951.19	2714
3952.33	2704
3953.47	2650
3954.6	2660
3955.74	2610
3956.88	2664
3958.02	2694
3959.15	2678
3960.29	2706
3961.43	2736
3962.56	2700
3963.7	2732
3964.84	2654
3965.97	2670
3967.11	2724
3968.24	2658
3969.38	2678
3970.51	2674
3971.65	2664
3972.78	2686
3973.92	2700
3975.05	2694
3976.19	2718
3977.32	2634
3978.45	2708
3979.59	2696
3980.72	2682
3981.85	2678
3982.99	2704
3984.12	2710
3985.25	2720
3986.39	2676
3987.52	2698
3988.65	2624
3989.78	2712
3990.91	2708
3992.05	2752
3993.18	2636
3994.31	2708
3995.44	2702
3996.57	2710
3997.7	2722
3998.83	2756
3999.96	2778
