#Acq. time (s)=	20
#Accumulations=	2
#Range (cm-¹)=	50...4000
#Windows=	3
#Autofocus=	Off
#AutoExposure=	Off
#Spike filter=	Multiple accum.
#Delay time (s)=	0
#Binning=	1
#Readout mode=	Signal
#DeNoise=	Off
#ICS correction=	Off
#Dark correction=	Off
#Inst. Process=	Off
#Instrument=	LabRAM HR Evol
#Detector=	Syncerity OE
#Objective=	x100_VIS
#Grating=	600 (500nm)
#ND Filter=	100%
#Laser=	532nm_Edge
#Hole=	100.021
#Range=	Visible
#Project=	Omar
#Sample=	
#Site=	21-09-22
#Title=	 CN-Sastre
#Remark=	
#Date=	21.09.2022 13:05
#Acquired=	21.09.2022 13:05:14
51.0918	44
52.9354	42
54.7807	46
56.6235	58
58.4681	82
60.3102	116
62.154	174
63.9954	252
65.8385	312
67.6792	388
69.5216	484
71.3615	640
73.2032	806
75.0424	1006
76.8834	1144
78.7218	1236
80.5621	1448
82.3998	1600
84.2393	1706
86.0764	1788
87.9152	1928
89.7515	1996
91.5874	2026
93.4251	2006
95.2603	1946
97.0973	1936
98.9318	1926
100.766	1948
102.602	1966
104.435	1996
106.27	2084
108.103	2058
109.936	2018
111.77	2010
113.601	2044
115.433	2026
117.266	1998
119.096	2030
120.926	2024
122.758	1998
124.588	1986
126.417	1960
128.246	1936
130.076	1920
131.904	1944
133.732	1854
135.561	1940
137.388	1928
139.215	1922
141.041	1888
142.869	1902
144.695	1930
146.52	1942
148.345	1914
150.171	1900
151.995	1930
153.819	1906
155.642	1890
157.465	1888
159.29	1842
161.112	1882
162.934	1878
164.756	1864
166.577	1828
168.398	1856
170.219	1846
172.041	1816
173.861	1846
175.68	1818
177.499	1820
179.318	1812
181.137	1814
182.955	1798
184.772	1792
186.592	1778
188.409	1798
190.225	1788
192.042	1796
193.857	1796
195.673	1780
197.488	1780
199.303	1760
201.118	1750
202.932	1718
204.746	1760
206.559	1724
208.372	1754
210.185	1764
211.997	1704
213.809	1724
215.621	1722
217.432	1710
219.243	1720
221.054	1698
222.864	1670
224.674	1662
226.483	1654
228.293	1728
230.101	1658
231.91	1694
233.718	1648
235.524	1630
237.331	1702
239.138	1660
240.945	1678
242.751	1668
244.557	1682
246.363	1706
248.168	1678
249.971	1716
251.776	1660
253.58	1698
255.384	1694
257.188	1696
258.991	1652
260.792	1666
262.594	1684
264.396	1684
266.198	1702
268	1686
269.799	1690
271.599	1676
273.4	1668
275.2	1684
277	1650
278.797	1690
280.596	1664
282.395	1658
284.193	1692
285.989	1634
287.786	1678
289.584	1662
291.378	1726
293.175	1710
294.971	1706
296.765	1680
298.561	1718
300.356	1638
302.148	1654
303.943	1708
305.737	1722
307.529	1696
309.322	1726
311.115	1728
312.906	1740
314.698	1728
316.49	1750
318.28	1718
320.071	1714
321.86	1728
323.651	1706
325.441	1726
327.229	1706
329.019	1754
330.806	1708
332.595	1718
334.381	1724
336.17	1704
337.955	1688
339.743	1734
341.528	1718
343.315	1716
345.099	1754
346.885	1752
348.669	1720
350.455	1760
352.238	1720
354.022	1750
355.805	1708
357.589	1706
359.371	1778
361.154	1688
362.935	1724
364.718	1700
366.498	1760
368.278	1754
370.06	1790
371.839	1746
373.62	1764
375.398	1762
377.177	1778
378.956	1776
380.734	1790
382.513	1770
384.29	1838
386.067	1780
387.845	1802
389.621	1798
391.396	1792
393.173	1806
394.948	1836
396.723	1794
398.499	1772
400.273	1798
402.046	1806
403.819	1758
405.594	1752
407.366	1788
409.138	1790
410.91	1778
412.683	1796
414.454	1818
416.225	1800
417.995	1756
419.768	1780
421.537	1752
423.307	1784
425.076	1810
426.844	1790
428.615	1754
430.382	1804
432.15	1750
433.917	1768
435.684	1800
437.451	1814
439.219	1814
440.985	1802
442.751	1802
444.516	1830
446.281	1832
448.045	1798
449.81	1788
451.574	1786
453.337	1810
455.102	1820
456.865	1846
458.628	1812
460.39	1812
462.152	1840
463.913	1854
465.674	1812
467.435	1832
469.196	1820
470.956	1782
472.716	1756
474.475	1806
476.234	1830
477.993	1768
479.752	1776
481.51	1818
483.268	1798
485.025	1788
486.782	1772
488.539	1776
490.295	1778
492.051	1802
493.807	1754
495.563	1716
497.316	1718
499.07	1718
500.825	1778
502.579	1704
504.333	1752
506.086	1760
507.839	1714
509.592	1754
511.344	1748
513.094	1772
514.846	1770
516.597	1736
518.349	1808
520.099	1760
521.85	1792
523.598	1784
525.347	1862
527.097	1832
528.846	1856
530.595	1910
532.341	1918
534.089	1978
535.837	2058
537.584	2086
539.329	2136
541.076	2190
542.822	2204
544.568	2222
546.312	2330
548.057	2300
549.802	2346
551.545	2378
553.289	2360
555.033	2398
556.775	2360
558.518	2352
560.261	2388
562.002	2326
563.744	2398
565.487	2386
567.226	2314
568.968	2370
570.709	2334
572.447	2304
574.188	2248
575.926	2248
577.665	2266
579.405	2208
581.142	2142
582.88	2168
584.617	2140
586.355	2132
588.091	2056
589.828	2026
591.565	2036
593.3	2032
595.036	1978
596.77	1952
598.506	1952
600.239	1878
601.974	1902
603.707	1862
605.442	1840
607.174	1842
608.905	1804
610.639	1826
612.37	1794
614.103	1768
615.833	1766
617.565	1678
619.295	1700
621.026	1634
622.755	1690
624.484	1678
626.215	1634
627.943	1698
629.67	1632
631.4	1636
633.127	1632
634.856	1616
636.582	1562
638.308	1582
640.036	1582
641.762	1554
643.487	1518
645.214	1520
646.938	1540
648.662	1506
650.386	1476
652.112	1482
653.835	1462
655.558	1446
657.282	1372
659.005	1400
660.726	1360
662.448	1398
664.171	1408
665.892	1368
667.613	1342
669.333	1334
671.053	1330
672.774	1248
674.494	1298
676.213	1302
677.931	1258
679.649	1250
681.369	1224
683.087	1232
684.804	1180
686.521	1204
688.238	1196
689.954	1170
691.67	1180
693.386	1192
695.103	1134
696.818	1102
698.533	1108
700.247	1122
701.961	1136
703.675	1064
705.389	1072
707.102	1060
708.814	1076
710.527	1070
712.239	1010
713.951	1080
715.662	1026
717.373	1040
719.084	1036
720.795	1022
722.505	1024
724.215	1006
725.924	972
727.633	1034
729.342	1004
731.051	1016
732.759	1010
734.467	998
736.174	994
737.882	966
739.589	990
741.295	972
742.999	1006
744.705	970
746.411	980
748.116	992
749.821	928
751.526	1002
753.23	944
754.934	984
756.636	984
758.34	956
760.043	970
761.745	1016
763.448	998
765.148	1006
766.85	1036
768.551	1042
770.252	1020
771.953	1010
773.652	988
775.352	1030
777.052	1054
778.751	1056
780.448	1018
782.147	1014
783.846	1044
785.544	1064
787.24	1044
788.938	1052
790.635	988
792.33	1042
794.027	998
795.723	990
797.417	976
799.113	1008
800.808	1004
802.501	1024
804.196	1008
805.89	940
807.582	972
809.276	978
810.968	1000
812.661	940
814.354	942
816.044	960
817.736	918
819.426	918
821.118	958
822.807	898
824.498	886
826.186	898
827.877	878
829.565	894
831.254	872
832.942	808
834.631	814
836.317	852
838.006	816
839.692	818
841.38	856
843.065	816
844.752	850
846.437	826
848.123	806
849.808	772
851.493	824
853.177	808
854.86	784
856.545	780
858.228	772
859.912	794
861.594	786
863.276	834
864.959	794
866.64	768
868.321	820
870.003	788
871.683	792
873.363	810
875.044	806
876.723	806
878.402	816
880.083	834
881.761	820
883.439	828
885.116	828
886.795	810
888.472	842
890.149	812
891.825	842
893.503	830
895.179	804
896.854	854
898.529	840
900.204	852
901.88	864
903.555	896
905.228	892
906.902	840
908.575	924
910.25	880
911.922	886
913.595	914
915.266	880
916.938	938
918.609	962
920.28	942
921.951	954
923.623	1010
925.293	968
926.963	992
928.633	962
930.302	1004
931.97	1038
933.639	1018
935.307	1062
936.975	1054
938.642	1078
940.31	1072
941.977	1118
943.643	1090
945.31	1094
946.976	1118
948.641	1120
950.307	1132
951.972	1108
953.636	1132
955.301	1160
956.965	1124
958.629	1112
960.292	1090
961.955	1100
963.618	1112
965.279	1132
966.941	1134
968.603	1106
970.265	1110
971.926	1076
973.587	1122
975.248	1092
976.908	1102
978.566	1112
980.226	1156
981.886	1114
983.545	1118
985.204	1186
986.86	1206
988.519	1180
990.177	1200
991.834	1194
993.491	1256
995.147	1176
996.803	1208
998.46	1228
1000.12	1210
1001.77	1228
1003.43	1244
1005.08	1270
1006.73	1204
1008.39	1254
1010.04	1260
1011.7	1276
1013.35	1320
1015	1338
1016.65	1306
1018.3	1350
1019.96	1356
1021.61	1354
1023.26	1384
1024.91	1394
1026.56	1426
1028.21	1454
1029.86	1440
1031.51	1440
1033.16	1468
1034.81	1516
1036.46	1510
1038.1	1518
1039.75	1562
1041.4	1548
1043.05	1592
1044.69	1630
1046.34	1600
1047.99	1668
1049.63	1652
1051.28	1704
1052.92	1672
1054.57	1706
1056.21	1736
1057.86	1762
1059.5	1754
1061.14	1830
1062.79	1818
1064.43	1846
1066.07	1904
1067.72	1942
1069.36	1898
1071	1946
1072.64	1992
1074.28	1980
1075.92	2006
1077.57	2104
1079.2	2088
1080.84	2134
1082.48	2180
1084.12	2184
1085.76	2182
1087.4	2208
1089.04	2188
1090.68	2222
1092.32	2216
1093.95	2224
1095.59	2234
1097.22	2228
1098.86	2210
1100.5	2132
1102.13	2190
1103.77	2186
1105.4	2144
1107.04	2106
1108.67	2084
1110.31	2068
1111.94	1986
1113.58	2010
1115.21	1938
1116.84	1948
1118.47	1806
1120.1	1918
1121.74	1810
1123.37	1804
1125	1778
1126.63	1692
1128.26	1696
1129.89	1690
1131.52	1642
1133.15	1626
1134.78	1588
1136.41	1554
1138.04	1564
1139.67	1536
1141.3	1482
1142.92	1474
1144.55	1450
1146.18	1448
1147.8	1350
1149.43	1380
1151.06	1358
1152.68	1324
1154.31	1276
1155.93	1258
1157.56	1296
1159.18	1222
1160.81	1280
1162.43	1244
1164.06	1214
1165.68	1198
1167.3	1196
1168.93	1178
1170.55	1150
1172.17	1128
1173.79	1142
1175.41	1116
1177.03	1152
1178.66	1098
1180.28	1056
1181.9	1072
1183.52	1064
1185.14	1016
1186.75	1038
1188.37	1026
1189.99	1012
1191.61	1002
1193.23	998
1194.85	972
1196.46	974
1198.08	918
1199.7	960
1201.31	928
1202.93	930
1204.55	918
1206.16	934
1207.78	924
1209.39	872
1211.01	924
1212.62	868
1214.24	882
1215.85	880
1217.46	864
1219.08	872
1220.69	862
1222.3	862
1223.91	866
1225.53	840
1227.14	842
1228.75	784
1230.36	822
1231.97	848
1233.58	816
1235.19	824
1236.8	836
1238.41	810
1240.02	824
1241.63	852
1243.23	832
1244.84	818
1246.45	818
1248.06	818
1249.67	798
1251.27	850
1252.88	814
1254.48	794
1256.09	816
1257.7	882
1259.3	814
1260.91	858
1262.51	802
1264.12	814
1265.72	794
1267.32	808
1268.93	828
1270.53	818
1272.13	842
1273.73	840
1275.34	852
1276.94	822
1278.54	870
1280.14	876
1281.74	868
1283.35	848
1284.94	868
1286.54	874
1288.15	883
1289.74	892
1291.34	898
1292.94	866
1294.54	912
1296.14	910
1297.74	934
1299.33	942
1300.93	924
1302.53	906
1304.12	928
1305.72	884
1307.32	932
1308.91	974
1310.51	970
1312.1	1002
1313.7	1000
1315.29	982
1316.89	1024
1318.48	1018
1320.07	1012
1321.67	1078
1323.26	1046
1324.85	1106
1326.45	1058
1328.04	1074
1329.63	1104
1331.22	1092
1332.81	1154
1334.4	1156
1335.99	1160
1337.58	1184
1339.17	1218
1340.77	1136
1342.35	1186
1343.94	1170
1345.53	1200
1347.12	1232
1348.71	1180
1350.3	1210
1351.88	1228
1353.47	1218
1355.06	1166
1356.64	1192
1358.23	1152
1359.82	1130
1361.4	1148
1362.99	1138
1364.57	1138
1366.16	1110
1367.74	1110
1369.33	1104
1370.91	1078
1372.49	1060
1374.08	1026
1375.66	1052
1377.24	1030
1378.82	1000
1380.41	1000
1381.99	980
1383.57	962
1385.15	968
1386.73	968
1388.31	970
1389.89	938
1391.47	920
1393.05	928
1394.63	872
1396.21	918
1397.79	898
1399.37	920
1400.95	886
1402.52	904
1404.1	910
1405.68	880
1407.25	876
1408.83	894
1410.41	870
1411.98	910
1413.56	866
1415.13	896
1416.71	864
1418.29	860
1419.86	862
1421.43	850
1423.01	876
1424.58	846
1426.15	838
1427.73	836
1429.3	866
1430.87	858
1432.44	828
1434.02	866
1435.59	834
1437.16	858
1438.73	872
1440.3	870
1441.87	818
1443.44	858
1445.01	848
1446.58	850
1448.15	870
1449.72	864
1451.29	854
1452.85	850
1454.42	850
1455.99	838
1457.56	850
1459.12	830
1460.69	852
1462.26	802
1463.82	872
1465.39	826
1466.95	838
1468.52	836
1470.08	824
1471.65	850
1473.21	828
1474.78	822
1476.34	850
1477.9	812
1479.47	832
1481.03	858
1482.59	854
1484.16	860
1485.72	876
1487.28	836
1488.84	856
1490.4	838
1491.96	866
1493.52	848
1495.08	862
1496.64	856
1498.2	848
1499.76	854
1501.32	832
1502.88	874
1504.44	872
1506	866
1507.55	866
1509.11	894
1510.67	888
1512.22	850
1513.78	848
1515.34	894
1516.89	894
1518.45	884
1520.01	902
1521.56	850
1523.11	872
1524.67	866
1526.22	874
1527.78	880
1529.33	914
1530.88	906
1532.44	916
1533.99	926
1535.54	884
1537.09	924
1538.65	932
1540.2	922
1541.75	940
1543.3	928
1544.85	956
1546.4	954
1547.95	956
1549.5	968
1551.05	964
1552.6	998
1554.15	1042
1555.7	1046
1557.25	1014
1558.79	1034
1560.34	1026
1561.89	1004
1563.43	1074
1564.98	1064
1566.53	1046
1568.08	1114
1569.62	1054
1571.17	1088
1572.71	1126
1574.26	1156
1575.8	1112
1577.35	1150
1578.89	1168
1580.43	1186
1581.98	1156
1583.52	1152
1585.06	1160
1586.61	1152
1588.15	1154
1589.69	1150
1591.23	1160
1592.77	1114
1594.32	1134
1595.86	1100
1597.4	1114
1598.94	1118
1600.48	1108
1602.02	1100
1603.56	1040
1605.1	1080
1606.64	1032.69
1608.18	1034.16
1609.71	1037.07
1611.25	1028.7
1612.79	974.943
1614.33	1015.55
1615.86	1014.73
1617.4	966.921
1618.94	981.922
1620.47	966.665
1622.01	962.833
1623.55	930.409
1625.08	901.749
1626.62	902.979
1628.15	920.13
1629.69	862.701
1631.22	910.836
1632.75	847.545
1634.29	877.182
1635.82	856.869
1637.35	863.395
1638.89	843.005
1640.42	826.159
1641.95	791.935
1643.48	825.76
1645.02	826.503
1646.55	795.992
1648.08	814.81
1649.61	804.036
1651.14	800.5
1652.67	802.918
1654.2	798.175
1655.73	806.512
1657.26	795.012
1658.79	772.213
1660.32	808.018
1661.84	782.898
1663.37	774.638
1664.9	745.865
1666.43	767.784
1667.96	785.992
1669.48	773.292
1671.01	775.136
1672.54	770.477
1674.06	749.81
1675.59	776.537
1677.11	753.681
1678.64	780.118
1680.16	765.557
1681.69	769.095
1683.21	771.843
1684.74	750.011
1686.26	779.456
1687.79	763.66
1689.31	754.95
1690.83	767.992
1692.35	770.683
1693.88	746.118
1695.4	759.402
1696.92	751.03
1698.44	751.494
1699.96	754.959
1701.48	754.104
1703.01	764.924
1704.53	748.796
1706.05	717.263
1707.57	745.527
1709.09	725.2
1710.6	732.535
1712.12	762.012
1713.64	755.85
1715.16	749.808
1716.68	735.172
1718.2	720.867
1719.71	743.709
1721.23	756.574
1722.75	741.674
1724.27	740.829
1725.78	716.091
1727.3	697.546
1728.81	737.524
1730.33	721.403
1731.84	718.97
1733.36	729.7
1734.88	725.483
1736.39	701.431
1737.9	734.459
1739.42	725.482
1740.93	720.715
1742.44	688.423
1743.96	704.696
1745.47	738.883
1746.98	729.458
1748.49	734.168
1750.01	710.098
1751.52	702.377
1753.03	694.355
1754.54	694.634
1756.05	731.577
1757.56	696.042
1757.63	694
1759.14	716
1760.66	712
1762.18	680
1763.69	700
1765.21	702
1766.72	710
1768.24	724
1769.75	696
1771.27	718
1772.78	710
1774.3	676
1775.81	694
1777.32	710
1778.84	698
1780.35	674
1781.86	730
1783.38	706
1784.89	724
1786.4	716
1787.91	718
1789.42	716
1790.93	722
1792.44	700
1793.95	700
1795.47	716
1796.98	742
1798.48	716
1799.99	720
1801.5	728
1803.01	742
1804.52	690
1806.03	716
1807.54	694
1809.04	710
1810.55	714
1812.06	698
1813.57	716
1815.07	722
1816.58	712
1818.08	712
1819.59	704
1821.09	724
1822.6	706
1824.11	710
1825.61	710
1827.11	710
1828.62	722
1830.12	720
1831.63	720
1833.13	718
1834.63	720
1836.13	706
1837.64	708
1839.14	728
1840.64	708
1842.14	732
1843.64	710
1845.14	700
1846.64	708
1848.14	712
1849.64	738
1851.14	714
1852.64	728
1854.14	702
1855.64	692
1857.14	720
1858.64	704
1860.14	724
1861.64	700
1863.13	696
1864.63	708
1866.13	712
1867.63	726
1869.12	736
1870.62	720
1872.11	686
1873.61	692
1875.1	692
1876.6	722
1878.09	680
1879.59	730
1881.08	730
1882.58	732
1884.07	742
1885.56	690
1887.06	698
1888.55	724
1890.04	720
1891.54	714
1893.03	746
1894.52	708
1896.01	732
1897.5	696
1898.99	710
1900.48	722
1901.97	718
1903.46	710
1904.96	726
1906.44	714
1907.93	726
1909.42	728
1910.91	720
1912.4	738
1913.89	724
1915.38	686
1916.86	760
1918.35	738
1919.84	714
1921.32	726
1922.81	714
1924.3	716
1925.78	700
1927.27	738
1928.76	734
1930.24	718
1931.72	744
1933.21	696
1934.69	738
1936.18	720
1937.66	732
1939.15	698
1940.63	692
1942.11	718
1943.59	708
1945.08	684
1946.56	730
1948.04	720
1949.52	718
1951	728
1952.48	744
1953.97	726
1955.45	712
1956.93	704
1958.41	742
1959.89	694
1961.37	710
1962.85	714
1964.32	718
1965.8	720
1967.28	694
1968.76	750
1970.24	716
1971.71	696
1973.19	718
1974.67	690
1976.15	706
1977.62	724
1979.1	704
1980.57	732
1982.05	730
1983.53	730
1985	696
1986.48	746
1987.95	702
1989.42	726
1990.9	704
1992.37	696
1993.85	680
1995.32	712
1996.79	744
1998.26	694
1999.74	710
2001.21	730
2002.68	722
2004.15	728
2005.62	702
2007.09	708
2008.56	712
2010.03	714
2011.51	722
2012.98	736
2014.44	738
2015.92	738
2017.38	734
2018.85	702
2020.32	720
2021.79	734
2023.26	740
2024.73	740
2026.19	698
2027.66	724
2029.13	710
2030.59	754
2032.06	738
2033.53	712
2034.99	718
2036.46	722
2037.92	694
2039.39	720
2040.85	726
2042.32	738
2043.78	726
2045.25	728
2046.71	742
2048.17	718
2049.64	732
2051.1	724
2052.56	748
2054.02	744
2055.49	694
2056.95	714
2058.41	698
2059.87	696
2061.33	724
2062.79	738
2064.25	734
2065.71	732
2067.17	726
2068.63	736
2070.09	698
2071.55	724
2073.01	734
2074.47	720
2075.93	702
2077.39	758
2078.84	694
2080.3	720
2081.76	722
2083.22	728
2084.67	708
2086.13	712
2087.59	714
2089.04	736
2090.5	778
2091.95	714
2093.41	700
2094.86	736
2096.32	708
2097.77	728
2099.23	710
2100.68	740
2102.13	716
2103.59	718
2105.04	726
2106.49	708
2107.95	726
2109.4	700
2110.85	746
2112.3	712
2113.75	706
2115.21	758
2116.66	736
2118.11	722
2119.56	738
2121.01	748
2122.46	710
2123.91	716
2125.36	716
2126.8	708
2128.25	730
2129.7	734
2131.15	742
2132.6	728
2134.05	740
2135.49	712
2136.94	722
2138.39	738
2139.83	700
2141.28	660
2142.73	738
2144.17	730
2145.62	678
2147.06	718
2148.51	734
2149.95	734
2151.4	702
2152.84	718
2154.29	728
2155.73	736
2157.17	746
2158.62	714
2160.06	720
2161.5	752
2162.95	746
2164.39	732
2165.83	716
2167.27	702
2168.71	722
2170.15	710
2171.59	732
2173.04	716
2174.48	764
2175.92	710
2177.36	742
2178.79	718
2180.24	728
2181.67	730
2183.11	734
2184.55	728
2185.99	732
2187.43	722
2188.86	746
2190.3	744
2191.74	700
2193.18	726
2194.61	718
2196.05	726
2197.49	756
2198.92	712
2200.36	742
2201.79	740
2203.23	734
2204.66	716
2206.1	726
2207.53	730
2208.97	736
2210.4	714
2211.83	684
2213.27	726
2214.7	674
2216.13	710
2217.57	710
2219	700
2220.43	690
2221.86	694
2223.29	744
2224.72	706
2226.15	694
2227.59	714
2229.02	674
2230.45	692
2231.88	682
2233.31	712
2234.74	702
2236.16	716
2237.59	668
2239.02	724
2240.45	704
2241.88	682
2243.31	696
2244.73	722
2246.16	714
2247.59	690
2249.01	702
2250.44	706
2251.87	710
2253.29	714
2254.72	726
2256.15	706
2257.57	720
2259	720
2260.42	700
2261.84	714
2263.27	724
2264.69	702
2266.12	670
2267.54	688
2268.96	716
2270.39	706
2271.81	736
2273.23	690
2274.65	700
2276.07	700
2277.5	698
2278.92	710
2280.34	706
2281.76	696
2283.18	710
2284.6	682
2286.02	726
2287.44	708
2288.86	736
2290.28	750
2291.7	670
2293.12	738
2294.54	748
2295.95	728
2297.37	738
2298.79	722
2300.21	740
2301.62	706
2303.04	706
2304.46	750
2305.88	736
2307.29	744
2308.71	752
2310.12	742
2311.54	744
2312.95	700
2314.37	758
2315.78	746
2317.2	754
2318.61	750
2320.02	728
2321.44	760
2322.85	750
2324.27	744
2325.68	770
2327.09	770
2328.5	810
2329.92	780
2331.33	772
2332.74	790
2334.15	754
2335.56	772
2336.97	794
2338.38	760
2339.79	760
2341.2	770
2342.61	772
2344.02	758
2345.43	766
2346.84	802
2348.25	786
2349.66	770
2351.07	798
2352.48	782
2353.88	794
2355.29	784
2356.7	796
2358.11	772
2359.51	768
2360.92	766
2362.32	836
2363.73	794
2365.14	798
2366.54	832
2367.95	814
2369.35	812
2370.76	784
2372.16	838
2373.57	774
2374.97	850
2376.37	810
2377.78	822
2379.18	806
2380.58	814
2381.99	830
2383.39	826
2384.79	856
2386.19	834
2387.59	826
2389	846
2390.4	846
2391.8	846
2393.2	836
2394.6	866
2396	848
2397.4	828
2398.8	864
2400.2	846
2401.6	858
2403	836
2404.39	840
2405.79	858
2407.19	868
2408.59	864
2409.99	856
2411.38	872
2412.78	878
2414.18	888
2415.57	860
2416.97	876
2418.37	852
2419.76	874
2421.16	916
2422.55	876
2423.95	890
2425.34	894
2426.74	872
2428.13	874
2429.53	854
2430.92	864
2432.31	864
2433.71	860
2435.1	874
2436.49	876
2437.89	904
2439.28	882
2440.67	896
2442.06	872
2443.45	870
2444.85	880
2446.24	878
2447.63	858
2449.02	884
2450.41	870
2451.8	876
2453.19	898
2454.58	882
2455.97	882
2457.36	860
2458.75	868
2460.13	884
2461.52	868
2462.91	884
2464.3	846
2465.69	882
2467.07	858
2468.46	846
2469.85	856
2471.24	882
2472.62	858
2474.01	872
2475.39	872
2476.78	870
2478.16	858
2479.55	890
2480.94	890
2482.32	928
2483.7	868
2485.09	896
2486.47	866
2487.85	866
2489.24	856
2490.62	864
2492	830
2493.39	838
2494.77	874
2496.15	884
2497.53	872
2498.92	870
2500.3	826
2501.68	890
2503.06	844
2504.44	846
2505.82	852
2507.2	842
2508.58	854
2509.96	856
2511.34	846
2512.72	836
2514.1	868
2515.48	870
2516.85	894
2518.23	850
2519.61	868
2520.99	872
2522.37	846
2523.74	872
2525.12	890
2526.5	866
2527.87	840
2529.25	884
2530.63	880
2532	876
2533.38	868
2534.75	872
2536.13	866
2537.5	856
2538.88	888
2540.25	882
2541.62	868
2543	882
2544.37	876
2545.75	876
2547.12	864
2548.49	856
2549.86	886
2551.24	890
2552.61	836
2553.98	852
2555.35	870
2556.72	882
2558.09	906
2559.47	840
2560.84	886
2562.21	856
2563.57	872
2564.95	858
2566.32	900
2567.68	878
2569.05	896
2570.42	868
2571.79	882
2573.16	874
2574.53	850
2575.9	884
2577.26	890
2578.63	858
2580	886
2581.36	904
2582.73	840
2584.1	878
2585.46	900
2586.83	860
2588.19	886
2589.56	890
2590.93	874
2592.29	892
2593.66	888
2595.02	886
2596.39	868
2597.75	900
2599.11	922
2600.47	892
2601.84	902
2603.2	898
2604.56	910
2605.93	912
2607.29	908
2608.65	910
2610.01	880
2611.38	892
2612.74	888
2614.1	910
2615.46	884
2616.82	900
2618.18	884
2619.54	962
2620.9	900
2622.26	894
2623.62	914
2624.98	902
2626.34	910
2627.69	908
2629.05	918
2630.41	922
2631.77	890
2633.13	936
2634.48	878
2635.84	932
2637.2	892
2638.56	894
2639.91	928
2641.27	932
2642.62	906
2643.98	898
2645.33	938
2646.69	944
2648.05	922
2649.4	927
2650.75	932
2652.11	932
2653.46	880
2654.82	916
2656.17	902
2657.52	928
2658.88	936
2660.23	946
2661.58	924
2662.94	904
2664.29	912
2665.64	936
2666.99	924
2668.34	930
2669.69	946
2671.04	902
2672.39	922
2673.75	946
2675.09	930
2676.45	944
2677.79	930
2679.14	950
2680.49	948
2681.84	950
2683.19	950
2684.54	930
2685.89	922
2687.24	902
2688.58	934
2689.93	910
2691.28	936
2692.63	946
2693.97	938
2695.32	950
2696.67	910
2698.01	936
2699.36	922
2700.7	930
2702.05	950
2703.39	934
2704.74	902
2706.08	946
2707.43	904
2708.77	908
2710.12	900
2711.46	938
2712.8	938
2714.15	948
2715.49	968
2716.83	968
2718.17	914
2719.52	976
2720.86	904
2722.2	928
2723.54	952
2724.88	954
2726.22	944
2727.57	956
2728.91	940
2730.25	944
2731.59	938
2732.93	948
2734.27	926
2735.61	940
2736.95	954
2738.28	968
2739.62	912
2740.96	944
2742.3	972
2743.64	916
2744.98	944
2746.31	954
2747.65	948
2748.99	974
2750.33	962
2751.66	946
2753	946
2754.33	944
2755.67	940
2757.01	936
2758.34	982
2759.68	936
2761.01	948
2762.35	972
2763.68	972
2765.01	952
2766.35	936
2767.68	960
2769.02	982
2770.35	976
2771.68	978
2773.02	952
2774.35	958
2775.68	942
2777.01	970
2778.35	970
2779.68	948
2781.01	962
2782.34	970
2783.67	1000
2785	1012
2786.33	980
2787.66	986
2788.99	978
2790.32	984
2791.65	1002
2792.98	962
2794.31	972
2795.64	1022
2796.97	974
2798.3	978
2799.62	994
2800.95	1020
2802.28	992
2803.61	1006
2804.93	970
2806.26	988
2807.59	1010
2808.91	1008
2810.24	978
2811.57	1016
2812.89	976
2814.22	1004
2815.54	994
2816.87	1010
2818.19	994
2819.52	994
2820.84	1008
2822.17	1016
2823.49	992
2824.81	992
2826.14	994
2827.46	1032
2828.78	1000
2830.11	994
2831.43	1008
2832.75	1032
2834.07	990
2835.39	1022
2836.72	988
2838.04	1022
2839.36	1000
2840.68	1002
2842	1016
2843.32	1024
2844.64	1030
2845.96	1058
2847.28	1032
2848.6	1050
2849.92	994
2851.24	1030
2852.56	1064
2853.88	1044
2855.19	1032
2856.51	1016
2857.83	1026
2859.15	1046
2860.46	1016
2861.78	1064
2863.1	1040
2864.42	1016
2865.73	1026
2867.05	1042
2868.36	1006
2869.68	1058
2871	1064
2872.31	1050
2873.63	1044
2874.94	1042
2876.26	1056
2877.57	1074
2878.88	1084
2880.2	1034
2881.51	1062
2882.82	1052
2884.14	1074
2885.45	1044
2886.76	1086
2888.08	1056
2889.39	1048
2890.7	1058
2892.01	1088
2893.33	1060
2894.64	1092
2895.95	1046
2897.26	1044
2898.57	1036
2899.88	1092
2901.19	1082
2902.5	1064
2903.81	1092
2905.12	1056
2906.43	1114
2907.74	1106
2909.05	1054
2910.35	1082
2911.66	1056
2912.97	1070
2914.28	1088
2915.59	1078
2916.89	1074
2918.2	1095.95
2919.51	1092.12
2920.82	1111.13
2922.12	1083.97
2923.43	1058.44
2924.73	1080.72
2926.04	1116.02
2927.35	1081.73
2928.65	1126.65
2929.96	1075.23
2931.26	1066.83
2932.57	1099.18
2933.87	1094.37
2935.17	1123.61
2936.48	1120.89
2937.78	1095.5
2939.09	1130.85
2940.39	1092.56
2941.69	1082.5
2943	1125.07
2944.3	1114.76
2945.6	1102.67
2946.9	1080.86
2948.2	1109.33
2949.51	1093.33
2950.81	1092.67
2952.11	1104.7
2953.41	1115.33
2954.71	1139.95
2956.01	1105.9
2957.31	1132.71
2958.61	1118.15
2959.91	1108.57
2961.21	1097.89
2962.51	1124.77
2963.81	1137.05
2965.11	1119.53
2966.41	1122.44
2967.71	1105.06
2969.01	1114
2970.3	1154.19
2971.6	1125.41
2972.9	1124.7
2974.2	1088.35
2975.49	1128.31
2976.79	1126.28
2978.09	1104.21
2979.39	1137.85
2980.68	1140.29
2981.98	1146.74
2983.27	1150.6
2984.57	1125.53
2985.86	1145.62
2987.16	1135.53
2988.45	1157.83
2989.75	1166.8
2991.04	1162.86
2992.34	1183.66
2993.63	1140.82
2994.93	1152.88
2996.22	1143.45
2997.51	1133.15
2998.81	1158.96
3000.1	1168.77
3001.39	1170.8
3002.68	1137.18
3003.98	1150.4
3005.27	1163.82
3006.56	1175.22
3007.85	1151.59
3009.14	1174.12
3010.43	1161.38
3011.72	1165.45
3013.01	1157.73
3014.31	1182.01
3015.59	1185.65
3016.89	1171.55
3018.18	1183.77
3019.47	1183.65
3020.75	1184.49
3022.04	1156.05
3023.33	1139.2
3024.62	1184.05
3025.91	1188.16
3027.2	1182.61
3028.48	1201.05
3029.77	1203.24
3031.06	1183.33
3032.35	1204.03
3033.64	1170.26
3034.92	1163.23
3036.21	1175.39
3037.5	1216.58
3038.78	1200.05
3040.07	1176.97
3041.35	1213.97
3042.64	1205.62
3043.92	1213.33
3045.21	1224.77
3046.49	1213.04
3047.78	1224.3
3048.11	1230
3049.4	1214
3050.69	1196
3051.98	1224
3053.27	1264
3054.56	1234
3055.85	1212
3057.14	1248
3058.43	1230
3059.72	1218
3061.01	1224
3062.29	1230
3063.58	1188
3064.87	1248
3066.16	1256
3067.44	1224
3068.73	1278
3070.02	1214
3071.31	1248
3072.59	1196
3073.88	1250
3075.16	1256
3076.45	1236
3077.73	1262
3079.02	1244
3080.31	1224
3081.59	1264
3082.87	1240
3084.16	1294
3085.44	1248
3086.73	1236
3088.01	1252
3089.29	1234
3090.58	1298
3091.86	1254
3093.14	1274
3094.43	1276
3095.71	1240
3096.99	1284
3098.27	1296
3099.55	1260
3100.84	1250
3102.12	1258
3103.4	1242
3104.68	1310
3105.96	1264
3107.24	1304
3108.52	1236
3109.8	1290
3111.08	1250
3112.36	1296
3113.64	1298
3114.92	1322
3116.2	1332
3117.48	1344
3118.75	1292
3120.03	1302
3121.31	1288
3122.59	1298
3123.87	1304
3125.14	1326
3126.42	1308
3127.7	1312
3128.97	1312
3130.25	1312
3131.53	1290
3132.8	1318
3134.08	1312
3135.35	1372
3136.63	1342
3137.9	1340
3139.18	1314
3140.45	1324
3141.73	1328
3143	1378
3144.28	1358
3145.55	1370
3146.82	1336
3148.1	1344
3149.37	1370
3150.64	1370
3151.92	1388
3153.19	1366
3154.46	1362
3155.73	1342
3157.01	1362
3158.28	1364
3159.55	1382
3160.82	1382
3162.09	1370
3163.36	1360
3164.63	1366
3165.9	1370
3167.17	1390
3168.44	1418
3169.71	1392
3170.98	1402
3172.25	1402
3173.52	1400
3174.79	1368
3176.06	1432
3177.32	1374
3178.59	1446
3179.86	1416
3181.13	1370
3182.4	1406
3183.66	1396
3184.93	1404
3186.2	1408
3187.46	1450
3188.73	1382
3190	1428
3191.26	1384
3192.53	1440
3193.79	1412
3195.06	1410
3196.32	1404
3197.59	1402
3198.85	1384
3200.12	1420
3201.38	1456
3202.65	1426
3203.91	1460
3205.17	1404
3206.44	1416
3207.7	1434
3208.96	1408
3210.23	1426
3211.49	1442
3212.75	1426
3214.01	1398
3215.27	1414
3216.54	1442
3217.8	1466
3219.06	1462
3220.32	1422
3221.58	1424
3222.84	1428
3224.1	1452
3225.36	1448
3226.62	1432
3227.88	1432
3229.14	1450
3230.4	1444
3231.66	1454
3232.92	1446
3234.18	1448
3235.44	1450
3236.69	1452
3237.95	1442
3239.21	1470
3240.47	1444
3241.72	1462
3242.98	1454
3244.24	1464
3245.5	1468
3246.75	1486
3248.01	1456
3249.26	1476
3250.52	1484
3251.78	1474
3253.03	1440
3254.29	1460
3255.54	1452
3256.8	1494
3258.05	1530
3259.3	1458
3260.56	1498
3261.81	1444
3263.07	1504
3264.32	1478
3265.57	1488
3266.83	1526
3268.08	1492
3269.33	1526
3270.58	1550
3271.84	1526
3273.09	1516
3274.34	1510
3275.59	1486
3276.84	1482
3278.09	1478
3279.35	1500
3280.6	1566
3281.85	1516
3283.1	1548
3284.35	1550
3285.6	1542
3286.85	1550
3288.1	1614
3289.35	1506
3290.59	1548
3291.84	1570
3293.09	1514
3294.34	1558
3295.59	1582
3296.84	1542
3298.08	1570
3299.33	1548
3300.58	1566
3301.83	1582
3303.07	1590
3304.32	1574
3305.57	1592
3306.81	1542
3308.06	1580
3309.3	1554
3310.55	1564
3311.79	1596
3313.04	1600
3314.29	1604
3315.53	1604
3316.77	1606
3318.02	1602
3319.26	1560
3320.51	1582
3321.75	1572
3322.99	1614
3324.24	1584
3325.48	1590
3326.72	1622
3327.97	1590
3329.21	1576
3330.45	1600
3331.69	1594
3332.93	1628
3334.18	1626
3335.42	1650
3336.66	1654
3337.9	1626
3339.14	1640
3340.38	1660
3341.62	1652
3342.86	1628
3344.1	1608
3345.34	1614
3346.58	1624
3347.82	1670
3349.06	1668
3350.3	1658
3351.54	1642
3352.77	1658
3354.01	1616
3355.25	1640
3356.49	1678
3357.73	1668
3358.96	1606
3360.2	1654
3361.44	1658
3362.67	1674
3363.91	1610
3365.15	1656
3366.38	1666
3367.62	1676
3368.85	1684
3370.09	1682
3371.33	1642
3372.56	1650
3373.8	1616
3375.03	1702
3376.26	1634
3377.5	1666
3378.73	1668
3379.97	1678
3381.2	1678
3382.43	1658
3383.67	1684
3384.9	1650
3386.13	1682
3387.37	1680
3388.6	1698
3389.83	1690
3391.06	1646
3392.29	1708
3393.52	1706
3394.76	1672
3395.99	1698
3397.22	1666
3398.45	1704
3399.68	1710
3400.91	1660
3402.14	1706
3403.37	1692
3404.6	1774
3405.83	1742
3407.06	1746
3408.29	1702
3409.51	1722
3410.74	1760
3411.97	1692
3413.2	1672
3414.43	1738
3415.66	1774
3416.88	1710
3418.11	1792
3419.34	1752
3420.56	1788
3421.79	1764
3423.02	1714
3424.24	1726
3425.47	1758
3426.7	1788
3427.92	1790
3429.15	1758
3430.37	1758
3431.6	1820
3432.82	1780
3434.05	1760
3435.27	1792
3436.5	1848
3437.72	1790
3438.94	1842
3440.17	1774
3441.39	1770
3442.61	1834
3443.84	1834
3445.06	1800
3446.28	1800
3447.51	1808
3448.73	1854
3449.95	1764
3451.17	1866
3452.39	1844
3453.61	1868
3454.83	1864
3456.06	1814
3457.28	1852
3458.5	1850
3459.72	1866
3460.94	1842
3462.16	1860
3463.38	1852
3464.6	1858
3465.82	1910
3467.04	1828
3468.25	1902
3469.47	1882
3470.69	1858
3471.91	1828
3473.13	1910
3474.34	1876
3475.56	1904
3476.78	1916
3478	1884
3479.21	1874
3480.43	1904
3481.65	1896
3482.86	1930
3484.08	1868
3485.3	1928
3486.51	1896
3487.73	1880
3488.94	1888
3490.16	1874
3491.37	1872
3492.59	1852
3493.8	1876
3495.02	1910
3496.23	1894
3497.45	1928
3498.66	1928
3499.87	1892
3501.09	1896
3502.3	1868
3503.51	1906
3504.72	1870
3505.94	1934
3507.15	1888
3508.36	1890
3509.57	1842
3510.79	1896
3512	1848
3513.21	1904
3514.42	1882
3515.63	1918
3516.84	1878
3518.05	1914
3519.26	1860
3520.47	1888
3521.68	1900
3522.89	1936
3524.1	1898
3525.31	1862
3526.52	1928
3527.73	1962
3528.94	1972
3530.14	1902
3531.35	1864
3532.56	1912
3533.77	1878
3534.98	1936
3536.18	1906
3537.39	1906
3538.6	1876
3539.81	1930
3541.01	1910
3542.22	1928
3543.42	1922
3544.63	1902
3545.84	1926
3547.04	1956
3548.25	1954
3549.45	1952
3550.66	1918
3551.86	1934
3553.07	1950
3554.27	1922
3555.47	1912
3556.68	1952
3557.88	1986
3559.09	1978
3560.29	1940
3561.49	1962
3562.7	2006
3563.9	1970
3565.1	1962
3566.3	1968
3567.51	1944
3568.71	1968
3569.91	1984
3571.11	2022
3572.31	1954
3573.51	1978
3574.71	2010
3575.92	1996
3577.12	2006
3578.32	1976
3579.52	1994
3580.72	2046
3581.92	1984
3583.12	2054
3584.31	2010
3585.51	1986
3586.71	2036
3587.91	2050
3589.11	2032
3590.31	2034
3591.51	2072
3592.71	2030
3593.9	2106
3595.1	2060
3596.3	2080
3597.49	2032
3598.69	2076
3599.89	2044
3601.08	2068
3602.28	2078
3603.48	2086
3604.67	2062
3605.87	2084
3607.06	2120
3608.26	2094
3609.45	2068
3610.65	2116
3611.84	2102
3613.04	2128
3614.23	2090
3615.43	2118
3616.62	2048
3617.82	2106
3619.01	2090
3620.2	2070
3621.39	2140
3622.59	2092
3623.78	2132
3624.97	2110
3626.17	2042
3627.36	2146
3628.55	2132
3629.74	2100
3630.93	2132
3632.12	2108
3633.31	2096
3634.51	2170
3635.7	2138
3636.89	2126
3638.08	2122
3639.27	2126
3640.46	2088
3641.65	2132
3642.84	2130
3644.03	2152
3645.22	2114
3646.4	2142
3647.59	2154
3648.78	2140
3649.97	2138
3651.16	2112
3652.35	2182
3653.53	2124
3654.72	2166
3655.91	2120
3657.1	2130
3658.28	2150
3659.47	2186
3660.66	2116
3661.84	2094
3663.03	2138
3664.21	2154
3665.4	2124
3666.59	2132
3667.77	2148
3668.96	2154
3670.14	2112
3671.33	2130
3672.51	2124
3673.69	2178
3674.88	2142
3676.06	2142
3677.25	2118
3678.43	2138
3679.61	2142
3680.8	2162
3681.98	2134
3683.16	2142
3684.34	2126
3685.53	2148
3686.71	2120
3687.89	2110
3689.07	2168
3690.25	2154
3691.44	2148
3692.62	2164
3693.8	2148
3694.98	2114
3696.16	2142
3697.34	2160
3698.52	2136
3699.7	2200
3700.88	2188
3702.06	2194
3703.24	2186
3704.42	2174
3705.6	2146
3706.78	2204
3707.96	2230
3709.13	2164
3710.31	2184
3711.49	2176
3712.67	2178
3713.85	2198
3715.02	2176
3716.2	2234
3717.38	2200
3718.56	2208
3719.73	2218
3720.91	2240
3722.08	2200
3723.26	2274
3724.44	2182
3725.61	2210
3726.79	2240
3727.96	2242
3729.14	2260
3730.31	2256
3731.49	2268
3732.66	2268
3733.84	2252
3735.01	2304
3736.18	2258
3737.36	2256
3738.53	2312
3739.7	2272
3740.88	2244
3742.05	2224
3743.22	2298
3744.4	2316
3745.57	2348
3746.74	2286
3747.91	2318
3749.09	2328
3750.26	2328
3751.43	2322
3752.6	2320
3753.77	2334
3754.94	2338
3756.11	2334
3757.28	2328
3758.45	2304
3759.62	2294
3760.79	2340
3761.96	2352
3763.13	2306
3764.3	2338
3765.47	2374
3766.64	2314
3767.81	2370
3768.98	2342
3770.14	2282
3771.31	2370
3772.48	2374
3773.65	2330
3774.82	2398
3775.98	2382
3777.15	2394
3778.32	2404
3779.48	2368
3780.65	2370
3781.82	2378
3782.98	2368
3784.15	2372
3785.32	2406
3786.48	2388
3787.65	2326
3788.81	2378
3789.98	2434
3791.14	2364
3792.3	2330
3793.47	2354
3794.63	2398
3795.8	2332
3796.96	2358
3798.13	2364
3799.29	2412
3800.45	2360
3801.61	2380
3802.78	2406
3803.94	2290
3805.1	2332
3806.27	2404
3807.43	2366
3808.59	2359
3809.75	2352
3810.91	2374
3812.07	2308
3813.24	2364
3814.4	2384
3815.56	2414
3816.72	2346
3817.88	2376
3819.04	2332
3820.2	2384
3821.36	2386
3822.52	2334
3823.68	2382
3824.84	2354
3826	2318
3827.15	2322
3828.31	2392
3829.47	2368
3830.63	2390
3831.79	2352
3832.95	2388
3834.1	2356
3835.26	2392
3836.42	2404
3837.58	2362
3838.73	2356
3839.89	2344
3841.04	2424
3842.2	2394
3843.36	2388
3844.51	2390
3845.67	2352
3846.83	2376
3847.98	2408
3849.14	2392
3850.29	2378
3851.45	2424
3852.6	2424
3853.76	2384
3854.91	2394
3856.06	2436
3857.22	2412
3858.37	2394
3859.52	2374
3860.68	2392
3861.83	2478
3862.98	2398
3864.14	2444
3865.29	2414
3866.44	2408
3867.59	2462
3868.75	2446
3869.9	2438
3871.05	2480
3872.2	2432
3873.35	2482
3874.5	2486
3875.65	2460
3876.8	2450
3877.95	2408
3879.1	2502
3880.25	2520
3881.4	2496
3882.55	2494
3883.7	2460
3884.85	2452
3886	2438
3887.15	2504
3888.3	2526
3889.45	2504
3890.6	2482
3891.75	2528
3892.89	2554
3894.04	2538
3895.19	2556
3896.34	2522
3897.48	2506
3898.63	2542
3899.78	2528
3900.92	2560
3902.07	2498
3903.22	2562
3904.36	2544
3905.51	2530
3906.65	2478
3907.8	2576
3908.94	2522
3910.09	2542
3911.23	2534
3912.38	2600
3913.52	2588
3914.67	2522
3915.81	2596
3916.96	2586
3918.1	2544
3919.24	2560
3920.39	2584
3921.53	2546
3922.67	2580
3923.82	2622
3924.96	2512
3926.1	2546
3927.24	2586
3928.39	2570
3929.53	2576
3930.67	2586
3931.81	2572
3932.95	2658
3934.09	2582
3935.24	2488
3936.38	2558
3937.52	2602
3938.66	2624
3939.8	2614
3940.94	2590
3942.08	2596
3943.22	2594
3944.36	2622
3945.5	2580
3946.63	2632
3947.77	2594
3948.91	2582
3950.05	2560
3951.19	2568
3952.33	2560
3953.47	2546
3954.6	2608
3955.74	2604
3956.88	2544
3958.02	2582
3959.15	2612
3960.29	2604
3961.43	2578
3962.56	2608
3963.7	2604
3964.84	2606
3965.97	2580
3967.11	2628
3968.24	2648
3969.38	2588
3970.51	2634
3971.65	2576
3972.78	2544
3973.92	2604
3975.05	2602
3976.19	2616
3977.32	2598
3978.45	2562
3979.59	2588
3980.72	2646
3981.85	2612
3982.99	2640
3984.12	2610
3985.25	2642
3986.39	2590
3987.52	2648
3988.65	2600
3989.78	2604
3990.91	2574
3992.05	2600
3993.18	2620
3994.31	2640
3995.44	2668
3996.57	2610
3997.7	2628
3998.83	2654
3999.96	2640
